 -0.1733203
 -0.1737819
 -0.1766010
 -0.1742473
 -0.1734247
 -0.1731940
 -0.1761365
 -0.1743760
 -0.1732335
 -0.1732130
 -0.1760569
 -0.1753984
 -0.1736088
 -0.1735316
 -0.1756916
 -0.1760469
 -0.1737910
 -0.1733947
 -0.1748929
 -0.1765585
 -0.1740437
 -0.1735792
 -0.1742964
 -0.1767178
 -0.1742177
 -0.1736126
 -0.1737476
 -0.1766973
 -0.1746826
 -0.1735954
 -0.1735110
 -0.1765180
 -0.1754198
 -0.1738682
 -0.1736837
 -0.1761122
 -0.1759930
 -0.1739593
 -0.1737967
 -0.1753655
 -0.1766730
 -0.1742816
 -0.1737027
 -0.1744333
 -0.1764136
 -0.1739345
 -0.1737066
 -0.1742110
 -0.1771970
 -0.1750627
 -0.1742535
 -0.1742616
 -0.1770544
 -0.1755023
 -0.1739130
 -0.1735034
 -0.1761871
 -0.1758080
 -0.1739841
 -0.1735144
 -0.1750522
 -0.1755204
 -0.1729584
 -0.1725655
 -0.1737256
 -0.1752968
 -0.1726771
 -0.1721854
 -0.1727090
 -0.1754551
 -0.1731115
 -0.1724763
 -0.1727166
 -0.1757002
 -0.1740041
 -0.1728926
 -0.1726270
 -0.1756282
 -0.1749268
 -0.1735435
 -0.1734767
 -0.1759057
 -0.1760922
 -0.1741734
 -0.1741309
 -0.1756458
 -0.1769510
 -0.1744671
 -0.1740809
 -0.1750784
 -0.1774554
 -0.1747356
 -0.1741080
 -0.1746783
 -0.1776486
 -0.1753655
 -0.1745563
 -0.1744819
 -0.1780262
 -0.1768790
 -0.1745854
 -0.1725712
 -0.1723132
 -0.1688538
 -0.1627474
 -0.1585183
 -0.1575771
 -0.1567798
 -0.1542769
 -0.1574307
 -0.1638670
 -0.1706877
 -0.1705222
 -0.1709476
 -0.1719003
 -0.1747542
 -0.1724858
 -0.1724534
 -0.1728363
 -0.1757984
 -0.1742635
 -0.1730910
 -0.1731243
 -0.1759920
 -0.1755080
 -0.1738725
 -0.1733432
 -0.1752262
 -0.1757522
 -0.1733074
 -0.1728206
 -0.1743622
 -0.1760783
 -0.1736794
 -0.1731916
 -0.1734300
 -0.1759138
 -0.1736155
 -0.1728730
 -0.1728115
 -0.1757455
 -0.1736341
 -0.1722579
 -0.1721058
 -0.1748257
 -0.1737428
 -0.1722770
 -0.1720715
 -0.1742707
 -0.1739688
 -0.1713190
 -0.1707559
 -0.1724501
 -0.1736183
 -0.1708231
 -0.1701017
 -0.1704202
 -0.1722970
 -0.1694036
 -0.1686268
 -0.1688214
 -0.1713448
 -0.1689391
 -0.1678610
 -0.1676040
 -0.1702900
 -0.1687780
 -0.1674180
 -0.1669259
 -0.1693912
 -0.1692109
 -0.1675835
 -0.1676974
 -0.1702457
 -0.1716786
 -0.1697550
 -0.1698966
 -0.1715260
 -0.1737189
 -0.1713581
 -0.1711259
 -0.1719527
 -0.1749430
 -0.1728482
 -0.1723232
 -0.1725540
 -0.1757808
 -0.1740394
 -0.1729331
 -0.1726575
 -0.1754823
 -0.1747022
 -0.1729937
 -0.1726446
 -0.1749115
 -0.1752367
 -0.1730557
 -0.1729231
 -0.1745496
 -0.1760550
 -0.1735139
 -0.1730199
 -0.1738529
 -0.1762295
 -0.1734271
 -0.1728258
 -0.1730952
 -0.1758266
 -0.1740704
 -0.1731439
 -0.1731401
 -0.1760216
 -0.1748634
 -0.1736236
 -0.1729737
 -0.1750493
 -0.1749463
 -0.1730509
 -0.1728850
 -0.1748595
 -0.1760922
 -0.1734648
 -0.1731200
 -0.1742120
 -0.1764140
 -0.1739674
 -0.1735482
 -0.1739502
 -0.1766215
 -0.1742940
 -0.1737242
 -0.1736922
 -0.1765280
 -0.1748295
 -0.1734753
 -0.1732536
 -0.1761470
 -0.1759167
 -0.1739321
 -0.1734348
 -0.1754399
 -0.1760636
 -0.1738057
 -0.1735397
 -0.1751218
 -0.1769147
 -0.1741781
 -0.1736412
 -0.1741944
 -0.1766649
 -0.1744809
 -0.1740418
 -0.1741080
 -0.1770020
 -0.1751013
 -0.1739917
 -0.1739202
 -0.1767526
 -0.1757331
 -0.1740809
 -0.1736832
 -0.1760144
 -0.1763168
 -0.1741219
 -0.1735459
 -0.1751337
 -0.1767235
 -0.1741586
 -0.1738219
 -0.1747503
 -0.1770187
 -0.1745191
 -0.1741195
 -0.1744328
 -0.1771841
 -0.1749120
 -0.1739354
 -0.1739097
 -0.1768832
 -0.1754809
 -0.1736183
 -0.1728602
 -0.1751285
 -0.1745825
 -0.1726737
 -0.1726442
 -0.1745706
 -0.1751552
 -0.1726074
 -0.1722007
 -0.1731930
 -0.1752062
 -0.1728606
 -0.1726170
 -0.1732474
 -0.1759091
 -0.1735630
 -0.1731711
 -0.1735187
 -0.1768069
 -0.1755014
 -0.1743660
 -0.1740380
 -0.1769204
 -0.1763282
 -0.1746564
 -0.1742802
 -0.1764436
 -0.1769886
 -0.1747613
 -0.1741801
 -0.1755915
 -0.1774993
 -0.1749420
 -0.1743112
 -0.1750531
 -0.1778355
 -0.1757369
 -0.1754794
 -0.1752577
 -0.1770573
 -0.1729064
 -0.1686769
 -0.1643748
 -0.1632118
 -0.1589699
 -0.1551829
 -0.1538863
 -0.1587267
 -0.1633883
 -0.1664605
 -0.1695118
 -0.1724420
 -0.1739283
 -0.1716671
 -0.1717272
 -0.1734562
 -0.1760011
 -0.1736551
 -0.1732164
 -0.1738129
 -0.1766954
 -0.1746373
 -0.1740036
 -0.1738963
 -0.1767731
 -0.1752243
 -0.1739173
 -0.1733833
 -0.1758290
 -0.1752911
 -0.1733465
 -0.1729508
 -0.1750069
 -0.1759110
 -0.1735316
 -0.1732273
 -0.1743555
 -0.1760159
 -0.1732221
 -0.1727300
 -0.1733976
 -0.1759877
 -0.1734448
 -0.1727243
 -0.1726470
 -0.1751728
 -0.1732731
 -0.1721010
 -0.1715865
 -0.1741181
 -0.1729484
 -0.1710544
 -0.1705651
 -0.1725779
 -0.1725311
 -0.1700077
 -0.1693745
 -0.1707473
 -0.1717735
 -0.1687694
 -0.1680083
 -0.1686983
 -0.1709504
 -0.1682530
 -0.1676445
 -0.1677304
 -0.1704960
 -0.1686015
 -0.1678567
 -0.1678796
 -0.1709485
 -0.1700072
 -0.1688419
 -0.1689959
 -0.1720906
 -0.1722994
 -0.1706066
 -0.1706176
 -0.1729346
 -0.1743789
 -0.1723571
 -0.1721745
 -0.1735049
 -0.1756435
 -0.1732002
 -0.1728182
 -0.1733694
 -0.1760950
 -0.1738758
 -0.1731930
 -0.1730900
 -0.1760082
 -0.1744957
 -0.1732893
 -0.1729074
 -0.1755839
 -0.1749740
 -0.1732187
 -0.1729341
 -0.1752944
 -0.1755271
 -0.1731644
 -0.1728873
 -0.1743674
 -0.1760092
 -0.1736574
 -0.1733136
 -0.1738782
 -0.1761975
 -0.1738672
 -0.1732431
 -0.1734085
 -0.1763091
 -0.1743822
 -0.1734634
 -0.1731439
 -0.1759801
 -0.1752339
 -0.1736002
 -0.1732722
 -0.1757698
 -0.1756845
 -0.1735716
 -0.1735301
 -0.1752897
 -0.1763067
 -0.1736899
 -0.1734114
 -0.1743918
 -0.1765661
 -0.1740127
 -0.1737437
 -0.1741328
 -0.1770129
 -0.1747852
 -0.1738577
 -0.1736894
 -0.1766916
 -0.1753063
 -0.1741681
 -0.1740542
 -0.1764198
 -0.1759701
 -0.1740103
 -0.1737232
 -0.1759362
 -0.1767240
 -0.1745281
 -0.1740842
 -0.1752091
 -0.1769920
 -0.1742702
 -0.1737757
 -0.1745696
 -0.1772752
 -0.1748023
 -0.1741128
 -0.1741538
 -0.1770907
 -0.1752305
 -0.1741300
 -0.1738730
 -0.1767097
 -0.1761146
 -0.1743741
 -0.1739917
 -0.1763463
 -0.1767082
 -0.1743689
 -0.1740627
 -0.1754599
 -0.1767378
 -0.1741882
 -0.1739712
 -0.1747828
 -0.1773963
 -0.1749945
 -0.1744504
 -0.1746874
 -0.1773672
 -0.1751728
 -0.1741123
 -0.1741033
 -0.1771779
 -0.1758213
 -0.1741114
 -0.1736670
 -0.1762238
 -0.1759238
 -0.1735182
 -0.1728778
 -0.1745672
 -0.1757117
 -0.1733599
 -0.1729527
 -0.1738615
 -0.1755624
 -0.1728292
 -0.1724382
 -0.1729045
 -0.1757078
 -0.1733580
 -0.1726690
 -0.1727696
 -0.1756568
 -0.1742807
 -0.1734743
 -0.1736965
 -0.1768189
 -0.1763711
 -0.1745281
 -0.1742430
 -0.1763282
 -0.1770086
 -0.1746445
 -0.1742530
 -0.1757364
 -0.1776576
 -0.1751223
 -0.1748529
 -0.1754794
 -0.1779537
 -0.1753216
 -0.1746736
 -0.1750117
 -0.1783533
 -0.1768832
 -0.1758442
 -0.1750331
 -0.1761179
 -0.1724200
 -0.1676483
 -0.1633201
 -0.1620431
 -0.1594835
 -0.1554823
 -0.1548925
 -0.1600723
 -0.1662226
 -0.1684766
 -0.1706133
 -0.1721506
 -0.1747165
 -0.1724267
 -0.1722999
 -0.1730986
 -0.1763253
 -0.1743031
 -0.1735187
 -0.1735659
 -0.1767631
 -0.1755910
 -0.1743007
 -0.1737352
 -0.1761146
 -0.1756501
 -0.1736841
 -0.1733928
 -0.1753226
 -0.1762400
 -0.1739674
 -0.1734996
 -0.1745863
 -0.1764159
 -0.1739183
 -0.1734014
 -0.1738415
 -0.1762839
 -0.1736789
 -0.1729465
 -0.1729107
 -0.1756683
 -0.1737418
 -0.1726299
 -0.1723175
 -0.1749287
 -0.1741948
 -0.1723886
 -0.1716833
 -0.1734204
 -0.1735449
 -0.1710468
 -0.1702199
 -0.1714831
 -0.1728749
 -0.1700921
 -0.1693897
 -0.1700874
 -0.1720576
 -0.1691036
 -0.1681743
 -0.1682553
 -0.1710587
 -0.1688781
 -0.1679549
 -0.1676302
 -0.1703377
 -0.1691256
 -0.1678333
 -0.1676026
 -0.1703510
 -0.1706267
 -0.1690273
 -0.1691103
 -0.1713233
 -0.1727185
 -0.1706138
 -0.1706572
 -0.1722532
 -0.1746946
 -0.1725860
 -0.1724119
 -0.1729698
 -0.1758437
 -0.1735716
 -0.1728468
 -0.1729651
 -0.1760836
 -0.1744633
 -0.1735158
 -0.1732841
 -0.1758571
 -0.1752529
 -0.1733599
 -0.1729989
 -0.1749554
 -0.1757059
 -0.1735797
 -0.1733647
 -0.1746712
 -0.1760235
 -0.1732655
 -0.1730428
 -0.1737251
 -0.1762729
 -0.1738935
 -0.1731377
 -0.1731558
 -0.1762223
 -0.1742573
 -0.1732536
 -0.1730428
 -0.1759906
 -0.1749974
 -0.1733413
 -0.1732497
 -0.1757198
 -0.1757035
 -0.1734839
 -0.1730256
 -0.1745010
 -0.1758356
 -0.1734019
 -0.1734019
 -0.1744981
 -0.1767397
 -0.1741581
 -0.1736884
 -0.1741390
 -0.1769672
 -0.1746726
 -0.1738677
 -0.1736717
 -0.1765185
 -0.1752238
 -0.1739836
 -0.1736646
 -0.1760221
 -0.1757069
 -0.1739793
 -0.1737256
 -0.1758213
 -0.1766262
 -0.1738916
 -0.1735864
 -0.1748152
 -0.1767817
 -0.1740341
 -0.1737752
 -0.1744819
 -0.1770697
 -0.1746927
 -0.1740537
 -0.1740771
 -0.1768708
 -0.1750703
 -0.1740952
 -0.1738229
 -0.1764975
 -0.1758242
 -0.1742377
 -0.1739068
 -0.1760059
 -0.1763358
 -0.1740604
 -0.1737614
 -0.1753502
 -0.1769433
 -0.1743031
 -0.1740189
 -0.1746469
 -0.1769428
 -0.1744971
 -0.1737900
 -0.1740031
 -0.1769309
 -0.1749845
 -0.1739965
 -0.1737914
 -0.1768522
 -0.1754976
 -0.1739631
 -0.1738115
 -0.1763578
 -0.1762920
 -0.1743784
 -0.1740451
 -0.1756869
 -0.1765509
 -0.1738453
 -0.1731434
 -0.1737995
 -0.1756377
 -0.1729365
 -0.1727138
 -0.1730128
 -0.1755533
 -0.1732984
 -0.1725884
 -0.1724706
 -0.1754246
 -0.1739149
 -0.1728053
 -0.1724177
 -0.1749387
 -0.1745725
 -0.1730089
 -0.1730609
 -0.1754656
 -0.1765456
 -0.1743288
 -0.1739578
 -0.1753755
 -0.1772466
 -0.1748743
 -0.1744828
 -0.1751466
 -0.1777764
 -0.1753626
 -0.1745396
 -0.1744361
 -0.1774464
 -0.1755996
 -0.1744161
 -0.1743651
 -0.1774750
 -0.1768933
 -0.1755452
 -0.1748805
 -0.1762996
 -0.1747914
 -0.1698237
 -0.1659217
 -0.1634450
 -0.1613860
 -0.1563950
 -0.1543741
 -0.1566763
 -0.1631432
 -0.1657863
 -0.1691976
 -0.1710930
 -0.1743174
 -0.1724401
 -0.1719127
 -0.1722627
 -0.1755457
 -0.1745768
 -0.1734472
 -0.1732116
 -0.1760264
 -0.1757879
 -0.1737676
 -0.1735730
 -0.1754327
 -0.1763153
 -0.1738744
 -0.1735144
 -0.1745000
 -0.1763673
 -0.1738067
 -0.1731849
 -0.1736307
 -0.1764546
 -0.1741467
 -0.1733561
 -0.1731630
 -0.1760149
 -0.1742912
 -0.1729431
 -0.1724739
 -0.1751085
 -0.1742969
 -0.1725097
 -0.1721482
 -0.1742149
 -0.1744404
 -0.1719032
 -0.1712299
 -0.1723995
 -0.1740222
 -0.1713963
 -0.1707111
 -0.1711588
 -0.1732264
 -0.1704087
 -0.1695786
 -0.1694737
 -0.1720057
 -0.1696563
 -0.1683049
 -0.1678066
 -0.1704951
 -0.1691308
 -0.1674810
 -0.1670895
 -0.1694994
 -0.1695757
 -0.1675587
 -0.1674185
 -0.1694913
 -0.1711083
 -0.1688810
 -0.1687308
 -0.1701260
 -0.1728339
 -0.1707745
 -0.1705852
 -0.1712761
 -0.1743827
 -0.1725435
 -0.1720176
 -0.1720581
 -0.1750641
 -0.1736922
 -0.1727729
 -0.1726623
 -0.1753803
 -0.1750512
 -0.1732736
 -0.1727839
 -0.1747132
 -0.1753926
 -0.1729994
 -0.1727109
 -0.1740957
 -0.1759062
 -0.1733666
 -0.1730986
 -0.1738119
 -0.1763768
 -0.1736784
 -0.1730552
 -0.1731801
 -0.1758847
 -0.1739650
 -0.1729136
 -0.1727667
 -0.1756616
 -0.1747303
 -0.1730452
 -0.1727038
 -0.1750832
 -0.1755862
 -0.1735087
 -0.1730037
 -0.1743546
 -0.1757384
 -0.1734367
 -0.1730380
 -0.1737261
 -0.1761227
 -0.1736908
 -0.1731425
 -0.1733642
 -0.1763077
 -0.1742377
 -0.1735993
 -0.1735339
 -0.1764264
 -0.1751337
 -0.1735888
 -0.1731901
 -0.1757436
 -0.1756959
 -0.1738305
 -0.1733823
 -0.1751857
 -0.1763554
 -0.1739140
 -0.1736169
 -0.1747718
 -0.1769061
 -0.1741653
 -0.1736694
 -0.1739922
 -0.1765642
 -0.1744571
 -0.1738243
 -0.1739168
 -0.1768670
 -0.1750403
 -0.1737619
 -0.1733833
 -0.1760917
 -0.1756687
 -0.1739726
 -0.1737819
 -0.1761365
 -0.1765542
 -0.1738587
 -0.1734643
 -0.1749315
 -0.1765700
 -0.1740580
 -0.1735783
 -0.1742516
 -0.1768584
 -0.1744285
 -0.1736956
 -0.1737566
 -0.1766238
 -0.1747699
 -0.1736641
 -0.1736231
 -0.1765065
 -0.1754904
 -0.1740761
 -0.1736183
 -0.1758342
 -0.1759024
 -0.1738315
 -0.1735845
 -0.1753507
 -0.1765762
 -0.1741557
 -0.1736708
 -0.1745854
 -0.1768675
 -0.1742773
 -0.1736751
 -0.1737032
 -0.1761036
 -0.1736994
 -0.1726027
 -0.1723285
 -0.1753135
 -0.1739583
 -0.1725097
 -0.1720510
 -0.1746593
 -0.1743999
 -0.1725373
 -0.1722584
 -0.1741920
 -0.1751085
 -0.1727257
 -0.1725025
 -0.1737876
 -0.1758752
 -0.1739044
 -0.1737991
 -0.1742802
 -0.1768728
 -0.1745997
 -0.1742802
 -0.1742149
 -0.1770053
 -0.1753698
 -0.1742258
 -0.1740189
 -0.1766358
 -0.1759143
 -0.1743074
 -0.1740499
 -0.1761861
 -0.1764999
 -0.1745544
 -0.1745119
 -0.1763621
 -0.1776386
 -0.1743765
 -0.1724062
 -0.1706400
 -0.1697502
 -0.1633749
 -0.1594019
 -0.1570616
 -0.1580115
 -0.1558995
 -0.1586485
 -0.1635366
 -0.1709056
 -0.1720820
 -0.1714068
 -0.1712976
 -0.1739454
 -0.1738281
 -0.1722465
 -0.1723280
 -0.1743598
 -0.1757226
 -0.1733399
 -0.1730309
 -0.1742850
 -0.1763053
 -0.1737175
 -0.1732741
 -0.1736865
 -0.1763411
 -0.1741276
 -0.1732688
 -0.1730285
 -0.1758228
 -0.1742778
 -0.1731558
 -0.1727123
 -0.1752048
 -0.1745172
 -0.1727834
 -0.1724873
 -0.1745291
 -0.1750241
 -0.1724286
 -0.1719723
 -0.1732316
 -0.1748414
 -0.1721320
 -0.1715131
 -0.1718669
 -0.1743174
 -0.1717329
 -0.1710229
 -0.1708765
 -0.1733670
 -0.1711307
 -0.1697831
 -0.1692257
 -0.1717472
 -0.1704760
 -0.1687551
 -0.1681724
 -0.1701422
 -0.1699834
 -0.1675458
 -0.1669436
 -0.1684952
 -0.1697564
 -0.1672487
 -0.1668539
 -0.1678429
 -0.1701775
 -0.1678744
 -0.1676684
 -0.1683960
 -0.1715989
 -0.1698609
 -0.1694637
 -0.1697021
 -0.1730323
 -0.1720944
 -0.1713343
 -0.1713257
 -0.1739459
 -0.1735964
 -0.1718254
 -0.1716747
 -0.1738057
 -0.1747837
 -0.1726203
 -0.1723881
 -0.1736837
 -0.1758046
 -0.1732941
 -0.1726155
 -0.1730924
 -0.1757665
 -0.1733804
 -0.1724487
 -0.1724429
 -0.1754041
 -0.1737976
 -0.1727495
 -0.1725331
 -0.1752343
 -0.1744051
 -0.1726122
 -0.1722141
 -0.1743627
 -0.1748271
 -0.1726299
 -0.1722536
 -0.1737795
 -0.1752196
 -0.1728697
 -0.1725192
 -0.1733570
 -0.1756797
 -0.1732226
 -0.1726032
 -0.1726995
 -0.1755557
 -0.1736241
 -0.1728306
 -0.1726604
 -0.1753297
 -0.1741209
 -0.1727724
 -0.1725002
 -0.1752658
 -0.1752715
 -0.1731773
 -0.1728711
 -0.1745234
 -0.1755190
 -0.1731529
 -0.1726408
 -0.1738553
 -0.1760860
 -0.1735659
 -0.1730776
 -0.1734224
 -0.1759896
 -0.1737533
 -0.1732540
 -0.1731515
 -0.1760683
 -0.1743899
 -0.1731472
 -0.1729579
 -0.1755529
 -0.1749168
 -0.1732221
 -0.1730786
 -0.1750655
 -0.1757679
 -0.1733899
 -0.1729183
 -0.1743217
 -0.1759401
 -0.1732331
 -0.1728888
 -0.1736021
 -0.1762386
 -0.1740089
 -0.1732826
 -0.1733165
 -0.1762228
 -0.1743489
 -0.1733556
 -0.1730685
 -0.1758366
 -0.1748414
 -0.1731796
 -0.1727596
 -0.1750860
 -0.1754437
 -0.1734719
 -0.1731549
 -0.1749606
 -0.1759796
 -0.1733399
 -0.1728945
 -0.1736531
 -0.1757722
 -0.1730080
 -0.1722818
 -0.1721997
 -0.1748939
 -0.1728249
 -0.1720338
 -0.1717220
 -0.1745033
 -0.1731615
 -0.1719890
 -0.1716805
 -0.1740532
 -0.1739092
 -0.1722341
 -0.1718173
 -0.1738529
 -0.1749492
 -0.1726995
 -0.1725764
 -0.1739683
 -0.1761303
 -0.1736460
 -0.1732650
 -0.1738234
 -0.1765332
 -0.1742177
 -0.1734452
 -0.1734915
 -0.1765547
 -0.1750536
 -0.1738186
 -0.1735826
 -0.1761918
 -0.1754813
 -0.1739006
 -0.1735916
 -0.1759420
 -0.1766353
 -0.1742993
 -0.1733465
 -0.1736112
 -0.1728368
 -0.1676111
 -0.1636644
 -0.1608033
 -0.1604366
 -0.1559005
 -0.1542034
 -0.1566014
 -0.1641474
 -0.1672206
 -0.1697397
 -0.1709762
 -0.1740365
 -0.1728564
 -0.1713906
 -0.1712280
 -0.1739989
 -0.1741414
 -0.1723380
 -0.1723142
 -0.1742106
 -0.1753769
 -0.1729408
 -0.1725254
 -0.1735454
 -0.1755915
 -0.1730032
 -0.1726079
 -0.1727667
 -0.1756191
 -0.1734410
 -0.1725774
 -0.1723061
 -0.1748834
 -0.1732531
 -0.1720963
 -0.1718245
 -0.1743922
 -0.1737380
 -0.1718240
 -0.1715012
 -0.1735306
 -0.1739388
 -0.1717186
 -0.1712527
 -0.1723919
 -0.1738496
 -0.1710482
 -0.1703291
 -0.1707349
 -0.1729241
 -0.1703000
 -0.1694493
 -0.1691704
 -0.1719065
 -0.1698470
 -0.1685152
 -0.1679931
 -0.1704135
 -0.1692634
 -0.1674204
 -0.1668458
 -0.1689048
 -0.1689716
 -0.1664291
 -0.1657858
 -0.1674423
 -0.1689482
 -0.1666823
 -0.1666217
 -0.1680446
 -0.1709061
 -0.1687770
 -0.1684723
 -0.1689701
 -0.1721292
 -0.1703425
 -0.1699910
 -0.1701970
 -0.1735068
 -0.1725598
 -0.1713238
 -0.1710925
 -0.1737614
 -0.1735587
 -0.1716576
 -0.1715083
 -0.1735573
 -0.1746559
 -0.1724291
 -0.1721173
 -0.1732516
 -0.1749997
 -0.1723786
 -0.1720271
 -0.1725526
 -0.1753860
 -0.1730833
 -0.1720891
 -0.1721001
 -0.1749978
 -0.1731768
 -0.1720700
 -0.1718121
 -0.1746173
 -0.1737805
 -0.1720519
 -0.1719156
 -0.1740737
 -0.1745119
 -0.1720753
 -0.1717639
 -0.1732688
 -0.1750202
 -0.1723943
 -0.1720352
 -0.1727934
 -0.1750479
 -0.1726504
 -0.1721106
 -0.1723147
 -0.1752053
 -0.1733408
 -0.1723471
 -0.1720090
 -0.1749382
 -0.1737433
 -0.1722994
 -0.1721444
 -0.1747532
 -0.1746640
 -0.1724477
 -0.1722212
 -0.1740923
 -0.1752887
 -0.1728602
 -0.1724968
 -0.1735316
 -0.1757889
 -0.1730957
 -0.1723371
 -0.1727257
 -0.1756788
 -0.1737480
 -0.1729984
 -0.1727634
 -0.1756158
 -0.1741166
 -0.1728993
 -0.1725655
 -0.1750856
 -0.1745196
 -0.1728044
 -0.1725111
 -0.1743555
 -0.1750460
 -0.1730976
 -0.1726074
 -0.1738196
 -0.1755543
 -0.1729994
 -0.1727185
 -0.1733546
 -0.1759157
 -0.1735120
 -0.1728654
 -0.1729107
 -0.1758929
 -0.1740442
 -0.1730957
 -0.1730042
 -0.1757903
 -0.1748281
 -0.1728811
 -0.1724696
 -0.1746731
 -0.1750088
 -0.1729474
 -0.1726747
 -0.1740732
 -0.1752491
 -0.1726732
 -0.1721935
 -0.1730271
 -0.1750283
 -0.1721959
 -0.1715369
 -0.1716314
 -0.1745076
 -0.1723714
 -0.1713019
 -0.1712785
 -0.1742707
 -0.1731076
 -0.1717715
 -0.1713710
 -0.1738701
 -0.1737600
 -0.1718388
 -0.1717310
 -0.1738892
 -0.1752706
 -0.1735082
 -0.1732030
 -0.1742754
 -0.1760636
 -0.1732769
 -0.1729918
 -0.1735468
 -0.1762815
 -0.1741429
 -0.1733208
 -0.1732946
 -0.1760197
 -0.1743565
 -0.1733198
 -0.1730700
 -0.1757846
 -0.1753197
 -0.1739116
 -0.1738377
 -0.1756954
 -0.1752482
 -0.1715856
 -0.1688347
 -0.1668387
 -0.1643868
 -0.1584935
 -0.1556049
 -0.1543684
 -0.1571231
 -0.1585012
 -0.1629524
 -0.1677041
 -0.1728349
 -0.1714645
 -0.1707049
 -0.1707707
 -0.1737423
 -0.1729613
 -0.1718245
 -0.1716647
 -0.1741591
 -0.1743846
 -0.1723333
 -0.1719299
 -0.1739536
 -0.1751232
 -0.1726785
 -0.1723395
 -0.1730771
 -0.1750760
 -0.1726136
 -0.1721711
 -0.1726208
 -0.1751738
 -0.1728387
 -0.1719051
 -0.1717091
 -0.1745486
 -0.1729989
 -0.1716657
 -0.1713867
 -0.1739049
 -0.1733122
 -0.1712909
 -0.1707297
 -0.1726012
 -0.1731668
 -0.1706705
 -0.1702671
 -0.1714487
 -0.1730046
 -0.1702128
 -0.1695733
 -0.1699047
 -0.1721411
 -0.1693716
 -0.1683488
 -0.1681266
 -0.1706176
 -0.1683264
 -0.1671729
 -0.1666780
 -0.1691823
 -0.1680889
 -0.1662955
 -0.1656370
 -0.1676784
 -0.1680703
 -0.1660419
 -0.1656685
 -0.1674147
 -0.1691299
 -0.1669698
 -0.1670308
 -0.1683283
 -0.1710401
 -0.1690889
 -0.1691318
 -0.1697402
 -0.1729856
 -0.1712370
 -0.1706119
 -0.1706858
 -0.1736789
 -0.1725130
 -0.1712046
 -0.1709576
 -0.1736651
 -0.1736050
 -0.1717658
 -0.1714735
 -0.1734858
 -0.1743474
 -0.1719074
 -0.1715217
 -0.1725807
 -0.1745544
 -0.1720209
 -0.1717396
 -0.1722994
 -0.1749110
 -0.1724611
 -0.1715765
 -0.1717177
 -0.1746826
 -0.1729212
 -0.1717329
 -0.1713348
 -0.1739860
 -0.1734872
 -0.1718264
 -0.1714330
 -0.1737209
 -0.1742311
 -0.1718793
 -0.1713958
 -0.1727247
 -0.1744971
 -0.1720395
 -0.1718207
 -0.1723876
 -0.1748657
 -0.1724372
 -0.1719351
 -0.1719084
 -0.1747546
 -0.1727920
 -0.1718636
 -0.1716433
 -0.1746001
 -0.1735363
 -0.1721273
 -0.1717487
 -0.1741028
 -0.1741505
 -0.1722803
 -0.1719079
 -0.1736636
 -0.1747923
 -0.1724582
 -0.1722317
 -0.1732288
 -0.1750140
 -0.1723705
 -0.1719651
 -0.1724692
 -0.1754365
 -0.1732087
 -0.1723004
 -0.1721583
 -0.1752396
 -0.1738830
 -0.1723576
 -0.1721039
 -0.1747818
 -0.1741944
 -0.1722746
 -0.1719408
 -0.1739154
 -0.1748076
 -0.1726694
 -0.1722903
 -0.1734004
 -0.1751986
 -0.1726723
 -0.1723504
 -0.1729012
 -0.1752053
 -0.1728668
 -0.1723552
 -0.1722245
 -0.1752572
 -0.1736527
 -0.1725741
 -0.1723681
 -0.1749811
 -0.1742344
 -0.1727281
 -0.1723213
 -0.1745496
 -0.1748963
 -0.1729012
 -0.1724477
 -0.1737080
 -0.1749320
 -0.1723762
 -0.1720438
 -0.1729574
 -0.1749306
 -0.1721974
 -0.1714716
 -0.1714926
 -0.1740656
 -0.1721091
 -0.1712723
 -0.1709681
 -0.1737342
 -0.1724515
 -0.1709361
 -0.1705632
 -0.1731177
 -0.1730800
 -0.1712446
 -0.1710396
 -0.1731148
 -0.1743336
 -0.1720534
 -0.1718826
 -0.1733360
 -0.1755715
 -0.1731057
 -0.1728807
 -0.1732807
 -0.1759596
 -0.1736412
 -0.1728316
 -0.1729660
 -0.1757226
 -0.1742158
 -0.1730190
 -0.1728182
 -0.1755328
 -0.1747527
 -0.1730433
 -0.1728544
 -0.1752186
 -0.1762557
 -0.1738820
 -0.1731520
 -0.1736241
 -0.1730013
 -0.1672607
 -0.1627631
 -0.1591134
 -0.1584072
 -0.1538916
 -0.1527891
 -0.1556716
 -0.1632657
 -0.1664658
 -0.1685758
 -0.1693683
 -0.1725240
 -0.1717720
 -0.1704912
 -0.1707154
 -0.1733380
 -0.1736708
 -0.1718736
 -0.1718426
 -0.1736303
 -0.1748533
 -0.1722784
 -0.1720185
 -0.1730843
 -0.1753302
 -0.1725159
 -0.1718517
 -0.1721845
 -0.1750951
 -0.1728687
 -0.1720200
 -0.1718421
 -0.1746307
 -0.1731992
 -0.1719504
 -0.1714573
 -0.1737924
 -0.1733036
 -0.1711879
 -0.1706739
 -0.1725755
 -0.1734576
 -0.1710997
 -0.1706610
 -0.1717715
 -0.1736269
 -0.1706948
 -0.1700463
 -0.1703596
 -0.1727538
 -0.1701188
 -0.1691318
 -0.1686840
 -0.1711664
 -0.1691303
 -0.1676746
 -0.1672330
 -0.1695824
 -0.1686263
 -0.1667748
 -0.1661616
 -0.1682124
 -0.1684580
 -0.1660299
 -0.1654177
 -0.1669092
 -0.1684103
 -0.1661020
 -0.1660190
 -0.1672406
 -0.1700535
 -0.1680074
 -0.1679115
 -0.1684509
 -0.1717839
 -0.1703387
 -0.1696787
 -0.1699505
 -0.1731591
 -0.1722946
 -0.1710553
 -0.1706381
 -0.1733117
 -0.1735540
 -0.1717758
 -0.1715932
 -0.1734638
 -0.1745253
 -0.1721401
 -0.1716609
 -0.1727076
 -0.1749964
 -0.1725698
 -0.1721029
 -0.1725083
 -0.1750474
 -0.1728096
 -0.1722579
 -0.1721993
 -0.1750450
 -0.1732669
 -0.1719151
 -0.1714616
 -0.1740875
 -0.1737905
 -0.1720658
 -0.1716833
 -0.1736560
 -0.1743064
 -0.1721330
 -0.1719117
 -0.1732617
 -0.1749330
 -0.1726089
 -0.1721912
 -0.1727042
 -0.1753888
 -0.1728397
 -0.1720662
 -0.1721745
 -0.1750670
 -0.1731992
 -0.1722555
 -0.1720000
 -0.1748581
 -0.1738768
 -0.1722880
 -0.1721139
 -0.1746564
 -0.1750140
 -0.1728316
 -0.1725235
 -0.1742630
 -0.1754713
 -0.1729031
 -0.1725517
 -0.1734863
 -0.1758695
 -0.1733494
 -0.1727700
 -0.1729698
 -0.1757112
 -0.1735182
 -0.1726523
 -0.1726527
 -0.1756473
 -0.1744175
 -0.1731138
 -0.1728773
 -0.1752000
 -0.1748963
 -0.1730709
 -0.1727219
 -0.1745782
 -0.1754327
 -0.1731825
 -0.1728053
 -0.1738892
 -0.1760030
 -0.1736150
 -0.1730585
 -0.1733227
 -0.1759777
 -0.1738386
 -0.1731816
 -0.1731568
 -0.1761923
 -0.1745019
 -0.1731510
 -0.1727324
 -0.1754303
 -0.1747041
 -0.1729179
 -0.1727829
 -0.1750727
 -0.1754575
 -0.1731706
 -0.1728406
 -0.1742983
 -0.1758824
 -0.1733785
 -0.1731801
 -0.1736679
 -0.1759486
 -0.1735091
 -0.1730547
 -0.1732626
 -0.1763110
 -0.1742883
 -0.1730232
 -0.1726828
 -0.1757140
 -0.1746483
 -0.1732593
 -0.1728153
 -0.1749916
 -0.1746040
 -0.1722684
 -0.1718002
 -0.1732507
 -0.1743880
 -0.1718679
 -0.1714645
 -0.1723972
 -0.1745997
 -0.1720247
 -0.1715136
 -0.1718850
 -0.1745372
 -0.1725397
 -0.1717863
 -0.1717010
 -0.1748376
 -0.1736274
 -0.1728649
 -0.1729603
 -0.1757550
 -0.1753531
 -0.1736803
 -0.1733489
 -0.1753998
 -0.1759930
 -0.1735907
 -0.1734410
 -0.1749430
 -0.1767092
 -0.1741915
 -0.1737099
 -0.1743121
 -0.1767879
 -0.1743441
 -0.1736913
 -0.1740828
 -0.1775484
 -0.1758523
 -0.1742153
 -0.1725416
 -0.1727886
 -0.1685615
 -0.1627822
 -0.1585112
 -0.1578336
 -0.1559582
 -0.1534553
 -0.1561675
 -0.1628719
 -0.1694641
 -0.1697192
 -0.1700883
 -0.1713209
 -0.1738854
 -0.1719284
 -0.1720052
 -0.1723952
 -0.1752801
 -0.1733351
 -0.1727610
 -0.1727071
 -0.1757016
 -0.1743775
 -0.1727743
 -0.1725054
 -0.1749554
 -0.1747842
 -0.1729799
 -0.1726227
 -0.1743527
 -0.1751776
 -0.1726012
 -0.1723037
 -0.1734901
 -0.1753144
 -0.1726980
 -0.1722722
 -0.1725264
 -0.1750369
 -0.1726904
 -0.1717992
 -0.1717210
 -0.1746922
 -0.1730414
 -0.1716957
 -0.1710577
 -0.1734429
 -0.1726117
 -0.1705876
 -0.1700316
 -0.1720433
 -0.1723361
 -0.1698027
 -0.1691456
 -0.1702838
 -0.1718946
 -0.1690903
 -0.1681547
 -0.1683035
 -0.1702767
 -0.1675825
 -0.1668153
 -0.1666680
 -0.1694746
 -0.1674624
 -0.1663413
 -0.1660547
 -0.1689468
 -0.1680942
 -0.1668821
 -0.1668239
 -0.1697121
 -0.1703124
 -0.1687346
 -0.1688023
 -0.1707015
 -0.1723356
 -0.1702914
 -0.1702981
 -0.1717649
 -0.1743078
 -0.1720486
 -0.1718383
 -0.1723256
 -0.1750965
 -0.1729236
 -0.1720758
 -0.1720829
 -0.1750121
 -0.1736365
 -0.1725249
 -0.1722412
 -0.1749659
 -0.1745725
 -0.1726203
 -0.1721759
 -0.1742063
 -0.1750574
 -0.1728354
 -0.1725240
 -0.1736202
 -0.1754136
 -0.1727553
 -0.1723032
 -0.1729984
 -0.1759205
 -0.1734600
 -0.1725140
 -0.1724634
 -0.1755614
 -0.1737533
 -0.1724997
 -0.1723056
 -0.1751209
 -0.1741710
 -0.1725464
 -0.1723175
 -0.1745830
 -0.1747914
 -0.1725755
 -0.1722889
 -0.1740031
 -0.1755567
 -0.1730581
 -0.1728158
 -0.1735449
 -0.1756878
 -0.1731940
 -0.1728792
 -0.1730666
 -0.1759553
 -0.1740775
 -0.1732226
 -0.1729260
 -0.1756964
 -0.1745911
 -0.1731816
 -0.1727734
 -0.1752038
 -0.1751099
 -0.1732245
 -0.1728959
 -0.1747608
 -0.1757827
 -0.1732574
 -0.1729484
 -0.1741071
 -0.1762600
 -0.1739011
 -0.1734472
 -0.1739035
 -0.1764941
 -0.1741333
 -0.1733341
 -0.1734858
 -0.1763849
 -0.1746102
 -0.1733690
 -0.1731153
 -0.1758962
 -0.1754437
 -0.1737461
 -0.1734076
 -0.1754770
 -0.1758890
 -0.1734877
 -0.1731553
 -0.1744933
 -0.1759701
 -0.1735659
 -0.1734624
 -0.1740589
 -0.1766091
 -0.1742659
 -0.1735544
 -0.1736446
 -0.1764403
 -0.1746016
 -0.1736150
 -0.1733542
 -0.1762209
 -0.1753383
 -0.1736770
 -0.1733122
 -0.1757260
 -0.1758929
 -0.1737676
 -0.1732645
 -0.1749492
 -0.1762347
 -0.1738820
 -0.1734863
 -0.1743760
 -0.1764593
 -0.1739769
 -0.1736126
 -0.1739445
 -0.1766820
 -0.1743579
 -0.1736036
 -0.1736121
 -0.1764922
 -0.1748982
 -0.1735649
 -0.1734123
 -0.1758781
 -0.1753526
 -0.1733728
 -0.1730447
 -0.1744943
 -0.1750965
 -0.1725860
 -0.1720495
 -0.1733237
 -0.1752935
 -0.1726799
 -0.1720638
 -0.1724286
 -0.1749702
 -0.1724792
 -0.1716061
 -0.1718693
 -0.1749602
 -0.1733413
 -0.1723914
 -0.1722713
 -0.1751967
 -0.1749544
 -0.1738091
 -0.1736722
 -0.1760249
 -0.1763611
 -0.1738863
 -0.1736737
 -0.1752844
 -0.1769052
 -0.1743446
 -0.1740895
 -0.1748491
 -0.1772514
 -0.1749349
 -0.1742883
 -0.1743074
 -0.1772619
 -0.1751971
 -0.1744161
 -0.1747904
 -0.1780558
 -0.1764708
 -0.1740246
 -0.1717644
 -0.1712475
 -0.1675401
 -0.1613817
 -0.1575432
 -0.1568704
 -0.1565271
 -0.1558194
 -0.1600738
 -0.1664300
 -0.1723547
 -0.1710506
 -0.1711536
 -0.1718402
 -0.1748066
 -0.1732073
 -0.1727748
 -0.1727319
 -0.1757865
 -0.1745014
 -0.1735554
 -0.1730900
 -0.1757412
 -0.1752811
 -0.1734367
 -0.1731844
 -0.1752315
 -0.1759210
 -0.1736117
 -0.1730166
 -0.1741772
 -0.1758681
 -0.1734133
 -0.1728845
 -0.1735697
 -0.1760016
 -0.1734300
 -0.1727071
 -0.1727171
 -0.1755934
 -0.1736622
 -0.1725011
 -0.1720638
 -0.1747341
 -0.1737113
 -0.1719179
 -0.1713066
 -0.1734143
 -0.1735573
 -0.1712909
 -0.1707573
 -0.1720128
 -0.1730547
 -0.1704498
 -0.1697402
 -0.1703367
 -0.1721854
 -0.1691828
 -0.1684175
 -0.1682835
 -0.1708875
 -0.1686316
 -0.1675325
 -0.1671725
 -0.1699534
 -0.1684218
 -0.1668525
 -0.1667009
 -0.1692596
 -0.1691098
 -0.1674667
 -0.1674638
 -0.1698446
 -0.1711669
 -0.1692705
 -0.1693850
 -0.1709910
 -0.1733728
 -0.1711579
 -0.1712542
 -0.1720042
 -0.1748557
 -0.1727896
 -0.1722775
 -0.1722927
 -0.1754708
 -0.1740236
 -0.1728492
 -0.1725893
 -0.1753011
 -0.1748100
 -0.1731687
 -0.1727710
 -0.1747136
 -0.1750999
 -0.1729102
 -0.1725002
 -0.1740270
 -0.1757617
 -0.1732669
 -0.1729078
 -0.1735921
 -0.1759048
 -0.1734677
 -0.1728969
 -0.1729388
 -0.1758843
 -0.1740003
 -0.1731534
 -0.1728192
 -0.1755786
 -0.1744390
 -0.1728711
 -0.1727052
 -0.1751776
 -0.1752553
 -0.1734333
 -0.1732192
 -0.1747871
 -0.1756835
 -0.1731878
 -0.1727324
 -0.1738649
 -0.1760807
 -0.1735606
 -0.1731525
 -0.1736074
 -0.1760202
 -0.1738544
 -0.1732121
 -0.1732035
 -0.1762457
 -0.1747427
 -0.1734405
 -0.1732259
 -0.1759253
 -0.1756540
 -0.1736422
 -0.1733117
 -0.1754956
 -0.1762529
 -0.1740890
 -0.1739917
 -0.1751623
 -0.1764760
 -0.1737261
 -0.1734214
 -0.1741529
 -0.1767478
 -0.1744495
 -0.1738796
 -0.1737213
 -0.1764913
 -0.1747198
 -0.1737652
 -0.1736503
 -0.1764369
 -0.1756907
 -0.1738935
 -0.1734014
 -0.1756816
 -0.1761399
 -0.1738920
 -0.1734991
 -0.1750770
 -0.1766477
 -0.1742311
 -0.1739426
 -0.1747351
 -0.1772380
 -0.1747017
 -0.1738215
 -0.1739335
 -0.1767583
 -0.1747003
 -0.1738377
 -0.1738491
 -0.1766916
 -0.1754546
 -0.1739884
 -0.1736922
 -0.1761551
 -0.1759591
 -0.1738696
 -0.1735115
 -0.1754437
 -0.1764589
 -0.1741600
 -0.1739340
 -0.1750608
 -0.1770301
 -0.1744476
 -0.1738997
 -0.1745038
 -0.1771317
 -0.1748286
 -0.1740127
 -0.1740504
 -0.1770077
 -0.1753559
 -0.1740241
 -0.1735501
 -0.1762715
 -0.1756616
 -0.1739559
 -0.1734395
 -0.1754370
 -0.1761742
 -0.1741433
 -0.1736260
 -0.1745978
 -0.1759396
 -0.1731138
 -0.1725655
 -0.1734047
 -0.1759224
 -0.1732168
 -0.1724353
 -0.1723809
 -0.1752539
 -0.1732040
 -0.1720009
 -0.1719318
 -0.1749640
 -0.1742473
 -0.1727352
 -0.1726585
 -0.1753373
 -0.1757965
 -0.1739450
 -0.1735726
 -0.1753631
 -0.1768112
 -0.1744180
 -0.1740766
 -0.1750131
 -0.1772781
 -0.1750174
 -0.1746273
 -0.1747647
 -0.1773386
 -0.1751166
 -0.1743160
 -0.1743002
 -0.1771836
 -0.1757698
 -0.1745639
 -0.1748104
 -0.1778259
 -0.1771693
 -0.1742540
 -0.1722784
 -0.1714435
 -0.1687398
 -0.1623736
 -0.1584816
 -0.1572247
 -0.1573463
 -0.1557956
 -0.1594424
 -0.1651812
 -0.1720863
 -0.1715446
 -0.1713143
 -0.1717081
 -0.1748734
 -0.1733613
 -0.1725970
 -0.1727023
 -0.1757317
 -0.1750965
 -0.1734328
 -0.1732059
 -0.1754523
 -0.1759062
 -0.1737790
 -0.1731806
 -0.1746497
 -0.1761732
 -0.1736651
 -0.1732359
 -0.1740709
 -0.1762514
 -0.1735630
 -0.1728778
 -0.1730762
 -0.1759324
 -0.1738939
 -0.1730075
 -0.1728096
 -0.1754513
 -0.1740942
 -0.1725602
 -0.1720386
 -0.1743970
 -0.1743412
 -0.1723161
 -0.1718087
 -0.1732383
 -0.1740747
 -0.1715288
 -0.1709709
 -0.1716275
 -0.1732669
 -0.1704993
 -0.1697383
 -0.1698203
 -0.1722174
 -0.1698036
 -0.1686678
 -0.1682692
 -0.1708203
 -0.1691232
 -0.1675897
 -0.1669555
 -0.1692782
 -0.1687422
 -0.1669870
 -0.1664343
 -0.1687699
 -0.1697202
 -0.1676669
 -0.1674476
 -0.1692314
 -0.1713591
 -0.1692987
 -0.1693707
 -0.1705528
 -0.1734143
 -0.1714578
 -0.1712728
 -0.1714616
 -0.1745997
 -0.1730380
 -0.1722222
 -0.1720581
 -0.1750140
 -0.1742850
 -0.1727643
 -0.1726599
 -0.1750894
 -0.1751576
 -0.1729794
 -0.1725836
 -0.1742387
 -0.1755972
 -0.1731210
 -0.1727138
 -0.1738486
 -0.1761899
 -0.1735006
 -0.1727791
 -0.1730542
 -0.1760984
 -0.1740127
 -0.1730333
 -0.1727429
 -0.1755982
 -0.1742811
 -0.1727333
 -0.1724582
 -0.1750598
 -0.1748462
 -0.1729264
 -0.1726265
 -0.1745973
 -0.1753240
 -0.1729350
 -0.1726704
 -0.1739736
 -0.1758700
 -0.1734314
 -0.1727586
 -0.1733246
 -0.1763606
 -0.1740360
 -0.1732259
 -0.1731601
 -0.1760330
 -0.1743369
 -0.1732025
 -0.1729002
 -0.1756840
 -0.1750427
 -0.1733809
 -0.1730819
 -0.1752591
 -0.1757245
 -0.1734681
 -0.1730981
 -0.1745625
 -0.1760049
 -0.1735444
 -0.1733394
 -0.1741548
 -0.1765805
 -0.1741657
 -0.1735001
 -0.1737318
 -0.1766391
 -0.1745763
 -0.1736150
 -0.1735158
 -0.1761918
 -0.1749459
 -0.1734395
 -0.1729846
 -0.1755700
 -0.1756149
 -0.1734572
 -0.1731081
 -0.1748738
 -0.1759558
 -0.1736031
 -0.1734324
 -0.1744466
 -0.1764188
 -0.1738734
 -0.1733356
 -0.1735678
 -0.1763253
 -0.1741491
 -0.1734815
 -0.1733809
 -0.1761751
 -0.1746965
 -0.1735501
 -0.1732598
 -0.1758614
 -0.1755095
 -0.1736145
 -0.1732617
 -0.1753655
 -0.1758819
 -0.1734910
 -0.1731239
 -0.1744466
 -0.1762629
 -0.1737328
 -0.1733666
 -0.1739354
 -0.1763602
 -0.1738415
 -0.1731477
 -0.1731653
 -0.1760464
 -0.1741462
 -0.1732536
 -0.1730685
 -0.1758342
 -0.1748915
 -0.1733260
 -0.1729355
 -0.1751261
 -0.1754680
 -0.1734457
 -0.1730595
 -0.1745153
 -0.1754403
 -0.1726084
 -0.1719852
 -0.1725803
 -0.1746779
 -0.1722179
 -0.1717606
 -0.1722141
 -0.1749068
 -0.1725149
 -0.1715393
 -0.1713662
 -0.1741982
 -0.1729303
 -0.1717186
 -0.1716409
 -0.1743770
 -0.1744838
 -0.1726999
 -0.1725974
 -0.1747256
 -0.1757870
 -0.1734877
 -0.1732712
 -0.1745010
 -0.1765390
 -0.1738954
 -0.1734719
 -0.1739330
 -0.1766238
 -0.1743012
 -0.1734810
 -0.1734505
 -0.1764803
 -0.1750427
 -0.1739412
 -0.1736775
 -0.1765881
 -0.1760574
 -0.1739283
 -0.1726556
 -0.1729102
 -0.1705747
 -0.1647263
 -0.1603351
 -0.1583653
 -0.1577716
 -0.1539107
 -0.1553183
 -0.1604090
 -0.1679607
 -0.1693173
 -0.1702061
 -0.1705332
 -0.1737113
 -0.1720662
 -0.1713767
 -0.1715379
 -0.1746302
 -0.1737175
 -0.1723643
 -0.1720147
 -0.1742373
 -0.1744237
 -0.1724653
 -0.1722603
 -0.1740618
 -0.1752091
 -0.1726890
 -0.1721750
 -0.1731053
 -0.1753259
 -0.1727591
 -0.1720996
 -0.1722484
 -0.1749325
 -0.1727548
 -0.1717630
 -0.1714759
 -0.1743565
 -0.1729818
 -0.1717644
 -0.1712456
 -0.1735492
 -0.1730590
 -0.1711722
 -0.1708074
 -0.1725126
 -0.1730423
 -0.1703749
 -0.1697054
 -0.1707034
 -0.1724601
 -0.1698575
 -0.1690755
 -0.1693559
 -0.1716194
 -0.1688428
 -0.1679278
 -0.1677733
 -0.1702781
 -0.1680513
 -0.1666126
 -0.1658578
 -0.1684609
 -0.1676426
 -0.1659446
 -0.1655503
 -0.1677118
 -0.1681175
 -0.1661334
 -0.1659880
 -0.1677332
 -0.1697879
 -0.1677609
 -0.1678834
 -0.1690254
 -0.1716910
 -0.1696573
 -0.1695490
 -0.1702643
 -0.1734195
 -0.1714969
 -0.1707216
 -0.1707130
 -0.1739116
 -0.1729856
 -0.1715470
 -0.1713076
 -0.1737128
 -0.1736837
 -0.1718521
 -0.1716147
 -0.1736841
 -0.1747380
 -0.1719713
 -0.1712637
 -0.1722636
 -0.1744518
 -0.1719475
 -0.1716147
 -0.1720653
 -0.1747809
 -0.1724019
 -0.1716185
 -0.1715360
 -0.1744380
 -0.1729694
 -0.1717959
 -0.1715479
 -0.1743698
 -0.1739078
 -0.1719918
 -0.1714292
 -0.1734882
 -0.1742044
 -0.1719423
 -0.1714435
 -0.1727543
 -0.1744404
 -0.1719909
 -0.1715450
 -0.1722703
 -0.1747389
 -0.1723271
 -0.1717220
 -0.1717134
 -0.1745944
 -0.1728192
 -0.1720190
 -0.1720076
 -0.1747184
 -0.1735578
 -0.1720963
 -0.1716886
 -0.1739140
 -0.1741090
 -0.1721559
 -0.1717949
 -0.1734953
 -0.1748357
 -0.1724100
 -0.1719556
 -0.1727472
 -0.1750608
 -0.1724491
 -0.1719718
 -0.1721602
 -0.1749201
 -0.1728759
 -0.1721368
 -0.1722379
 -0.1751666
 -0.1736808
 -0.1723752
 -0.1720638
 -0.1746745
 -0.1743670
 -0.1721282
 -0.1715541
 -0.1735916
 -0.1746445
 -0.1723972
 -0.1720600
 -0.1732145
 -0.1750727
 -0.1724105
 -0.1721506
 -0.1727886
 -0.1753907
 -0.1731138
 -0.1724696
 -0.1722999
 -0.1749287
 -0.1732683
 -0.1722269
 -0.1719432
 -0.1746950
 -0.1740108
 -0.1723762
 -0.1719265
 -0.1742130
 -0.1747008
 -0.1724029
 -0.1720462
 -0.1734410
 -0.1748796
 -0.1724034
 -0.1720472
 -0.1726895
 -0.1751242
 -0.1727758
 -0.1723352
 -0.1724367
 -0.1751299
 -0.1731582
 -0.1722212
 -0.1720624
 -0.1747933
 -0.1735625
 -0.1722303
 -0.1717458
 -0.1741748
 -0.1743937
 -0.1723700
 -0.1718598
 -0.1732202
 -0.1740508
 -0.1713519
 -0.1707058
 -0.1714478
 -0.1736703
 -0.1711827
 -0.1705976
 -0.1709013
 -0.1734405
 -0.1711502
 -0.1704712
 -0.1704765
 -0.1734052
 -0.1719871
 -0.1707068
 -0.1704927
 -0.1733523
 -0.1732860
 -0.1719556
 -0.1718655
 -0.1738901
 -0.1747318
 -0.1726713
 -0.1722436
 -0.1733895
 -0.1752787
 -0.1727982
 -0.1722698
 -0.1727562
 -0.1754265
 -0.1731401
 -0.1726494
 -0.1725655
 -0.1753493
 -0.1735406
 -0.1725803
 -0.1727686
 -0.1760240
 -0.1747899
 -0.1722560
 -0.1701360
 -0.1697355
 -0.1664181
 -0.1600943
 -0.1563049
 -0.1554022
 -0.1552396
 -0.1540318
 -0.1578164
 -0.1639300
 -0.1704817
 -0.1696744
 -0.1695380
 -0.1699949
 -0.1730104
 -0.1710768
 -0.1704731
 -0.1705413
 -0.1735587
 -0.1726423
 -0.1716013
 -0.1711970
 -0.1737485
 -0.1737409
 -0.1716356
 -0.1713438
 -0.1730852
 -0.1742249
 -0.1718111
 -0.1712284
 -0.1723027
 -0.1742439
 -0.1715417
 -0.1710053
 -0.1713605
 -0.1738601
 -0.1714807
 -0.1707716
 -0.1707192
 -0.1736613
 -0.1718602
 -0.1703830
 -0.1700559
 -0.1725860
 -0.1718674
 -0.1700053
 -0.1696091
 -0.1716514
 -0.1720624
 -0.1694422
 -0.1688919
 -0.1700077
 -0.1713400
 -0.1685152
 -0.1678710
 -0.1682601
 -0.1704016
 -0.1675816
 -0.1667628
 -0.1664748
 -0.1689086
 -0.1666913
 -0.1655374
 -0.1650820
 -0.1675983
 -0.1665697
 -0.1649828
 -0.1646276
 -0.1671643
 -0.1674004
 -0.1654334
 -0.1652770
 -0.1673508
 -0.1689935
 -0.1669512
 -0.1671453
 -0.1687370
 -0.1714702
 -0.1692987
 -0.1690650
 -0.1697054
 -0.1726752
 -0.1708403
 -0.1704283
 -0.1704602
 -0.1732345
 -0.1717982
 -0.1705709
 -0.1704102
 -0.1729555
 -0.1728473
 -0.1710043
 -0.1706791
 -0.1727076
 -0.1736336
 -0.1713085
 -0.1709242
 -0.1720257
 -0.1738730
 -0.1713667
 -0.1709161
 -0.1714258
 -0.1740537
 -0.1719675
 -0.1713457
 -0.1713042
 -0.1743107
 -0.1726160
 -0.1712084
 -0.1705246
 -0.1732345
 -0.1727791
 -0.1712647
 -0.1707559
 -0.1729064
 -0.1733179
 -0.1709204
 -0.1707750
 -0.1723223
 -0.1738887
 -0.1716070
 -0.1712165
 -0.1719532
 -0.1743636
 -0.1719222
 -0.1714339
 -0.1716004
 -0.1742263
 -0.1722083
 -0.1713352
 -0.1713643
 -0.1742416
 -0.1731096
 -0.1717382
 -0.1713138
 -0.1737962
 -0.1737256
 -0.1715136
 -0.1710844
 -0.1729493
 -0.1741567
 -0.1717615
 -0.1714292
 -0.1725097
 -0.1746392
 -0.1721845
 -0.1716004
 -0.1718836
 -0.1747227
 -0.1725083
 -0.1717596
 -0.1717568
 -0.1747198
 -0.1730590
 -0.1716366
 -0.1712313
 -0.1739040
 -0.1735215
 -0.1717220
 -0.1715679
 -0.1736903
 -0.1742745
 -0.1719265
 -0.1716800
 -0.1730004
 -0.1747079
 -0.1721206
 -0.1717339
 -0.1724591
 -0.1750226
 -0.1725240
 -0.1718602
 -0.1719914
 -0.1749115
 -0.1728850
 -0.1717339
 -0.1714974
 -0.1741510
 -0.1734758
 -0.1717930
 -0.1714902
 -0.1738558
 -0.1741624
 -0.1720777
 -0.1717563
 -0.1732555
 -0.1745024
 -0.1719032
 -0.1714502
 -0.1724253
 -0.1750188
 -0.1723871
 -0.1717105
 -0.1720090
 -0.1748257
 -0.1726756
 -0.1718869
 -0.1717282
 -0.1744981
 -0.1732507
 -0.1717215
 -0.1709767
 -0.1731596
 -0.1727052
 -0.1706438
 -0.1704054
 -0.1721053
 -0.1727734
 -0.1704126
 -0.1702681
 -0.1714440
 -0.1730571
 -0.1703429
 -0.1698837
 -0.1705466
 -0.1734610
 -0.1713743
 -0.1706882
 -0.1709924
 -0.1743798
 -0.1731734
 -0.1721959
 -0.1719794
 -0.1746621
 -0.1738734
 -0.1720481
 -0.1717825
 -0.1740022
 -0.1745391
 -0.1725002
 -0.1723361
 -0.1737247
 -0.1753240
 -0.1726399
 -0.1721401
 -0.1729770
 -0.1755257
 -0.1733437
 -0.1732192
 -0.1733895
 -0.1756473
 -0.1720386
 -0.1685438
 -0.1649838
 -0.1636958
 -0.1591273
 -0.1549821
 -0.1527314
 -0.1551600
 -0.1587992
 -0.1616073
 -0.1658983
 -0.1701617
 -0.1721306
 -0.1696806
 -0.1693588
 -0.1705828
 -0.1732469
 -0.1712542
 -0.1709347
 -0.1713481
 -0.1742087
 -0.1721354
 -0.1715450
 -0.1716428
 -0.1745720
 -0.1729865
 -0.1714163
 -0.1709194
 -0.1733728
 -0.1731253
 -0.1713209
 -0.1709600
 -0.1728034
 -0.1736560
 -0.1713524
 -0.1708088
 -0.1718002
 -0.1735959
 -0.1709981
 -0.1704793
 -0.1709252
 -0.1735835
 -0.1712842
 -0.1704903
 -0.1702891
 -0.1728831
 -0.1708646
 -0.1696592
 -0.1692419
 -0.1716442
 -0.1708060
 -0.1691776
 -0.1686058
 -0.1705494
 -0.1704264
 -0.1676383
 -0.1670151
 -0.1683493
 -0.1695085
 -0.1666150
 -0.1660509
 -0.1665573
 -0.1687556
 -0.1661887
 -0.1653590
 -0.1653843
 -0.1682859
 -0.1662545
 -0.1652427
 -0.1651592
 -0.1679440
 -0.1668701
 -0.1659160
 -0.1661105
 -0.1691051
 -0.1695509
 -0.1679106
 -0.1679759
 -0.1701303
 -0.1715632
 -0.1694617
 -0.1694112
 -0.1708026
 -0.1731434
 -0.1707993
 -0.1705723
 -0.1710005
 -0.1737194
 -0.1716123
 -0.1708689
 -0.1708236
 -0.1736541
 -0.1722264
 -0.1711326
 -0.1708560
 -0.1736131
 -0.1730232
 -0.1710053
 -0.1705828
 -0.1725660
 -0.1733775
 -0.1712547
 -0.1709848
 -0.1724019
 -0.1740799
 -0.1713910
 -0.1709686
 -0.1716261
 -0.1742468
 -0.1718722
 -0.1711207
 -0.1711035
 -0.1739364
 -0.1720581
 -0.1711235
 -0.1710363
 -0.1738339
 -0.1729384
 -0.1712327
 -0.1709066
 -0.1732340
 -0.1737042
 -0.1716051
 -0.1711016
 -0.1725254
 -0.1739559
 -0.1716423
 -0.1713205
 -0.1720376
 -0.1744371
 -0.1723018
 -0.1717811
 -0.1718230
 -0.1745558
 -0.1723862
 -0.1717267
 -0.1716957
 -0.1745525
 -0.1731305
 -0.1717382
 -0.1713248
 -0.1739283
 -0.1736875
 -0.1717096
 -0.1714277
 -0.1734276
 -0.1745730
 -0.1723294
 -0.1718254
 -0.1726914
 -0.1746111
 -0.1721111
 -0.1716919
 -0.1721120
 -0.1747518
 -0.1725764
 -0.1718717
 -0.1717596
 -0.1747871
 -0.1731453
 -0.1720610
 -0.1718445
 -0.1744275
 -0.1736756
 -0.1721506
 -0.1719175
 -0.1739941
 -0.1747589
 -0.1723585
 -0.1717925
 -0.1730857
 -0.1747117
 -0.1723352
 -0.1720429
 -0.1727686
 -0.1752982
 -0.1727424
 -0.1722727
 -0.1723628
 -0.1752076
 -0.1732059
 -0.1721025
 -0.1718903
 -0.1746078
 -0.1736841
 -0.1721974
 -0.1717911
 -0.1740294
 -0.1743064
 -0.1724167
 -0.1721659
 -0.1736989
 -0.1745496
 -0.1718216
 -0.1711822
 -0.1718526
 -0.1738687
 -0.1713510
 -0.1708241
 -0.1710673
 -0.1738053
 -0.1715231
 -0.1706639
 -0.1705685
 -0.1734481
 -0.1720319
 -0.1706238
 -0.1704059
 -0.1732068
 -0.1731606
 -0.1717515
 -0.1718192
 -0.1744299
 -0.1753826
 -0.1725469
 -0.1719771
 -0.1732617
 -0.1752410
 -0.1728916
 -0.1724873
 -0.1730356
 -0.1757841
 -0.1734815
 -0.1727867
 -0.1728006
 -0.1757446
 -0.1740365
 -0.1728692
 -0.1725645
 -0.1753936
 -0.1751962
 -0.1739273
 -0.1730824
 -0.1740871
 -0.1724897
 -0.1674161
 -0.1631279
 -0.1605082
 -0.1590247
 -0.1544247
 -0.1529737
 -0.1559940
 -0.1627560
 -0.1654587
 -0.1684385
 -0.1699982
 -0.1732264
 -0.1713472
 -0.1703940
 -0.1704231
 -0.1735540
 -0.1727429
 -0.1714483
 -0.1713381
 -0.1738897
 -0.1739512
 -0.1720333
 -0.1717339
 -0.1735382
 -0.1748271
 -0.1722865
 -0.1717563
 -0.1726179
 -0.1746721
 -0.1721091
 -0.1715436
 -0.1718626
 -0.1744881
 -0.1722040
 -0.1713910
 -0.1712079
 -0.1741438
 -0.1725846
 -0.1711726
 -0.1706252
 -0.1731773
 -0.1727624
 -0.1707559
 -0.1703887
 -0.1724253
 -0.1730418
 -0.1705399
 -0.1699538
 -0.1707349
 -0.1720581
 -0.1693087
 -0.1687603
 -0.1692753
 -0.1716862
 -0.1691218
 -0.1678977
 -0.1674419
 -0.1700311
 -0.1680432
 -0.1667671
 -0.1661511
 -0.1686692
 -0.1676579
 -0.1658793
 -0.1653366
 -0.1675296
 -0.1677737
 -0.1656981
 -0.1654539
 -0.1674252
 -0.1691599
 -0.1669135
 -0.1668663
 -0.1680651
 -0.1709466
 -0.1688576
 -0.1688700
 -0.1695519
 -0.1726327
 -0.1708846
 -0.1700607
 -0.1700611
 -0.1731105
 -0.1722369
 -0.1710749
 -0.1708122
 -0.1733151
 -0.1731343
 -0.1711517
 -0.1710253
 -0.1728111
 -0.1736279
 -0.1712723
 -0.1710897
 -0.1721988
 -0.1741848
 -0.1715827
 -0.1709433
 -0.1714149
 -0.1741891
 -0.1719747
 -0.1712299
 -0.1711173
 -0.1739698
 -0.1725698
 -0.1713233
 -0.1710434
 -0.1737890
 -0.1732197
 -0.1713233
 -0.1710673
 -0.1731878
 -0.1737371
 -0.1714950
 -0.1711235
 -0.1724415
 -0.1740403
 -0.1715527
 -0.1713047
 -0.1719132
 -0.1742983
 -0.1719022
 -0.1714936
 -0.1714893
 -0.1742683
 -0.1725588
 -0.1717205
 -0.1714492
 -0.1741705
 -0.1733752
 -0.1719270
 -0.1715880
 -0.1738954
 -0.1742144
 -0.1719680
 -0.1713114
 -0.1729255
 -0.1742201
 -0.1719966
 -0.1717835
 -0.1727801
 -0.1748443
 -0.1723380
 -0.1718841
 -0.1720386
 -0.1749335
 -0.1726346
 -0.1717181
 -0.1717096
 -0.1746035
 -0.1733742
 -0.1721463
 -0.1717887
 -0.1742649
 -0.1739435
 -0.1721506
 -0.1715942
 -0.1735664
 -0.1745038
 -0.1720686
 -0.1717625
 -0.1728516
 -0.1746917
 -0.1722269
 -0.1718435
 -0.1724987
 -0.1750961
 -0.1727696
 -0.1721497
 -0.1721249
 -0.1750641
 -0.1732879
 -0.1720867
 -0.1717205
 -0.1744709
 -0.1739106
 -0.1720662
 -0.1714039
 -0.1736703
 -0.1744495
 -0.1722965
 -0.1716104
 -0.1727982
 -0.1741119
 -0.1714511
 -0.1709838
 -0.1715336
 -0.1739173
 -0.1715179
 -0.1706701
 -0.1704464
 -0.1734305
 -0.1715441
 -0.1705013
 -0.1703444
 -0.1732297
 -0.1721926
 -0.1707812
 -0.1705809
 -0.1732731
 -0.1735773
 -0.1717959
 -0.1717410
 -0.1736360
 -0.1748758
 -0.1724968
 -0.1721783
 -0.1732550
 -0.1754203
 -0.1729841
 -0.1727638
 -0.1730132
 -0.1756005
 -0.1733780
 -0.1725655
 -0.1725874
 -0.1756439
 -0.1742263
 -0.1729350
 -0.1728025
 -0.1755443
 -0.1750670
 -0.1723914
 -0.1702762
 -0.1697235
 -0.1675616
 -0.1614938
 -0.1578121
 -0.1568332
 -0.1565700
 -0.1539369
 -0.1568933
 -0.1623569
 -0.1693540
 -0.1697049
 -0.1704197
 -0.1705990
 -0.1733442
 -0.1715489
 -0.1707583
 -0.1710706
 -0.1740303
 -0.1731558
 -0.1714030
 -0.1712041
 -0.1736140
 -0.1740380
 -0.1721130
 -0.1717077
 -0.1728735
 -0.1742540
 -0.1716461
 -0.1712523
 -0.1720462
 -0.1745095
 -0.1721239
 -0.1715398
 -0.1713867
 -0.1740766
 -0.1719656
 -0.1708546
 -0.1707583
 -0.1736350
 -0.1724181
 -0.1708651
 -0.1703201
 -0.1725016
 -0.1723538
 -0.1702056
 -0.1698141
 -0.1715780
 -0.1723690
 -0.1698551
 -0.1692553
 -0.1702123
 -0.1719899
 -0.1688781
 -0.1678958
 -0.1680570
 -0.1705618
 -0.1680813
 -0.1671248
 -0.1667609
 -0.1692085
 -0.1676235
 -0.1662488
 -0.1656280
 -0.1679135
 -0.1673432
 -0.1654382
 -0.1650763
 -0.1670752
 -0.1679764
 -0.1659937
 -0.1658230
 -0.1673517
 -0.1695051
 -0.1674600
 -0.1675019
 -0.1686917
 -0.1718216
 -0.1697483
 -0.1693592
 -0.1695214
 -0.1727281
 -0.1712856
 -0.1705222
 -0.1704598
 -0.1733093
 -0.1724344
 -0.1710348
 -0.1707473
 -0.1729531
 -0.1731787
 -0.1711393
 -0.1708632
 -0.1724711
 -0.1736927
 -0.1711254
 -0.1707535
 -0.1716533
 -0.1740203
 -0.1717172
 -0.1712580
 -0.1714869
 -0.1742478
 -0.1722975
 -0.1714573
 -0.1713839
 -0.1739583
 -0.1724344
 -0.1709781
 -0.1706515
 -0.1732335
 -0.1730356
 -0.1712475
 -0.1711078
 -0.1730676
 -0.1738434
 -0.1710997
 -0.1706810
 -0.1718803
 -0.1739736
 -0.1716457
 -0.1714931
 -0.1718340
 -0.1742850
 -0.1719103
 -0.1712342
 -0.1714030
 -0.1742001
 -0.1728277
 -0.1719585
 -0.1715884
 -0.1741028
 -0.1733480
 -0.1717358
 -0.1712709
 -0.1733160
 -0.1738157
 -0.1713724
 -0.1710692
 -0.1726170
 -0.1743417
 -0.1720553
 -0.1716857
 -0.1722055
 -0.1746731
 -0.1722341
 -0.1717196
 -0.1719079
 -0.1748162
 -0.1727252
 -0.1716948
 -0.1715274
 -0.1743775
 -0.1733670
 -0.1718378
 -0.1715317
 -0.1738038
 -0.1738811
 -0.1719766
 -0.1714959
 -0.1731749
 -0.1742587
 -0.1717682
 -0.1714893
 -0.1725002
 -0.1748958
 -0.1723571
 -0.1719222
 -0.1723018
 -0.1749201
 -0.1725702
 -0.1716647
 -0.1715555
 -0.1743779
 -0.1727438
 -0.1710425
 -0.1706944
 -0.1731186
 -0.1725884
 -0.1706133
 -0.1702380
 -0.1721029
 -0.1728687
 -0.1704517
 -0.1698618
 -0.1712022
 -0.1733456
 -0.1708966
 -0.1704688
 -0.1709166
 -0.1737337
 -0.1715656
 -0.1712580
 -0.1716418
 -0.1747213
 -0.1731940
 -0.1723628
 -0.1720314
 -0.1745987
 -0.1737843
 -0.1722622
 -0.1720810
 -0.1742263
 -0.1745582
 -0.1724358
 -0.1721416
 -0.1735802
 -0.1750155
 -0.1725230
 -0.1721716
 -0.1732354
 -0.1758867
 -0.1734352
 -0.1723533
 -0.1714931
 -0.1723805
 -0.1677203
 -0.1634841
 -0.1595397
 -0.1595340
 -0.1561709
 -0.1531916
 -0.1539068
 -0.1605940
 -0.1657386
 -0.1675425
 -0.1691370
 -0.1714931
 -0.1726608
 -0.1704784
 -0.1701760
 -0.1716190
 -0.1740961
 -0.1716547
 -0.1710234
 -0.1715141
 -0.1741915
 -0.1720410
 -0.1714540
 -0.1714282
 -0.1744471
 -0.1728792
 -0.1714831
 -0.1709051
 -0.1734548
 -0.1730805
 -0.1712856
 -0.1709876
 -0.1730004
 -0.1734262
 -0.1708474
 -0.1703687
 -0.1715741
 -0.1732025
 -0.1708427
 -0.1705189
 -0.1707969
 -0.1733713
 -0.1708079
 -0.1700082
 -0.1702242
 -0.1729293
 -0.1708503
 -0.1695652
 -0.1689668
 -0.1714883
 -0.1702604
 -0.1683269
 -0.1676388
 -0.1698871
 -0.1699372
 -0.1674552
 -0.1665578
 -0.1678653
 -0.1689100
 -0.1660547
 -0.1655355
 -0.1662026
 -0.1682492
 -0.1657362
 -0.1651631
 -0.1655359
 -0.1683989
 -0.1664791
 -0.1656890
 -0.1654873
 -0.1687260
 -0.1678801
 -0.1669035
 -0.1669922
 -0.1699190
 -0.1701732
 -0.1686321
 -0.1685615
 -0.1707006
 -0.1719809
 -0.1698904
 -0.1697245
 -0.1711011
 -0.1733294
 -0.1707864
 -0.1705508
 -0.1711855
 -0.1738391
 -0.1716323
 -0.1708384
 -0.1708756
 -0.1738105
 -0.1720624
 -0.1709419
 -0.1708789
 -0.1733976
 -0.1724930
 -0.1708303
 -0.1705594
 -0.1726046
 -0.1731301
 -0.1708980
 -0.1704927
 -0.1717005
 -0.1734362
 -0.1711860
 -0.1707721
 -0.1713119
 -0.1738434
 -0.1713662
 -0.1707812
 -0.1706805
 -0.1735645
 -0.1717839
 -0.1710067
 -0.1707144
 -0.1735082
 -0.1725655
 -0.1709728
 -0.1706176
 -0.1730113
 -0.1733427
 -0.1712408
 -0.1708794
 -0.1726442
 -0.1737986
 -0.1712260
 -0.1707726
 -0.1716156
 -0.1738935
 -0.1714692
 -0.1710243
 -0.1714268
 -0.1743694
 -0.1723461
 -0.1714645
 -0.1710024
 -0.1738005
 -0.1725445
 -0.1713267
 -0.1710305
 -0.1737886
 -0.1734386
 -0.1712966
 -0.1710854
 -0.1731196
 -0.1739702
 -0.1715598
 -0.1710816
 -0.1722841
 -0.1742034
 -0.1716442
 -0.1712952
 -0.1718502
 -0.1743674
 -0.1721087
 -0.1713762
 -0.1713457
 -0.1743088
 -0.1726132
 -0.1715389
 -0.1712017
 -0.1738391
 -0.1733217
 -0.1716347
 -0.1712198
 -0.1734147
 -0.1736837
 -0.1715732
 -0.1713176
 -0.1726995
 -0.1740251
 -0.1712675
 -0.1705756
 -0.1710005
 -0.1732030
 -0.1706057
 -0.1699381
 -0.1701389
 -0.1730805
 -0.1710196
 -0.1699486
 -0.1696048
 -0.1725803
 -0.1716070
 -0.1700206
 -0.1697045
 -0.1721626
 -0.1722388
 -0.1705389
 -0.1707411
 -0.1726165
 -0.1739602
 -0.1716800
 -0.1715141
 -0.1726093
 -0.1745639
 -0.1720987
 -0.1717077
 -0.1720987
 -0.1748171
 -0.1726232
 -0.1720047
 -0.1719928
 -0.1748305
 -0.1731405
 -0.1719279
 -0.1716395
 -0.1742673
 -0.1744890
 -0.1730724
 -0.1723738
 -0.1733556
 -0.1722493
 -0.1673985
 -0.1636000
 -0.1608653
 -0.1592021
 -0.1541643
 -0.1520477
 -0.1533337
 -0.1599031
 -0.1625915
 -0.1663323
 -0.1683893
 -0.1718455
 -0.1702433
 -0.1693063
 -0.1691990
 -0.1724248
 -0.1721845
 -0.1707144
 -0.1703291
 -0.1727405
 -0.1730828
 -0.1710196
 -0.1706848
 -0.1723290
 -0.1736913
 -0.1711049
 -0.1707869
 -0.1715722
 -0.1738019
 -0.1713271
 -0.1706629
 -0.1706610
 -0.1736222
 -0.1715880
 -0.1704593
 -0.1701241
 -0.1729331
 -0.1716051
 -0.1701112
 -0.1697736
 -0.1721664
 -0.1719156
 -0.1696344
 -0.1691284
 -0.1710191
 -0.1717849
 -0.1691275
 -0.1685124
 -0.1695519
 -0.1715083
 -0.1686554
 -0.1676779
 -0.1679354
 -0.1705036
 -0.1677733
 -0.1667171
 -0.1663923
 -0.1689396
 -0.1671257
 -0.1656871
 -0.1650696
 -0.1672793
 -0.1666603
 -0.1649900
 -0.1643162
 -0.1661253
 -0.1665764
 -0.1646123
 -0.1645384
 -0.1661854
 -0.1683045
 -0.1661482
 -0.1660891
 -0.1671066
 -0.1701460
 -0.1681524
 -0.1677828
 -0.1682153
 -0.1715598
 -0.1699243
 -0.1691666
 -0.1690970
 -0.1722245
 -0.1716156
 -0.1702337
 -0.1699481
 -0.1723943
 -0.1724038
 -0.1702962
 -0.1699834
 -0.1715718
 -0.1728959
 -0.1706643
 -0.1704798
 -0.1711927
 -0.1732650
 -0.1707449
 -0.1702652
 -0.1707216
 -0.1735707
 -0.1713591
 -0.1702414
 -0.1699286
 -0.1727615
 -0.1716070
 -0.1704250
 -0.1701074
 -0.1726608
 -0.1724262
 -0.1704664
 -0.1700616
 -0.1720286
 -0.1730027
 -0.1708017
 -0.1703758
 -0.1713181
 -0.1731644
 -0.1708064
 -0.1703611
 -0.1707945
 -0.1734467
 -0.1712427
 -0.1706181
 -0.1705919
 -0.1734858
 -0.1719871
 -0.1707311
 -0.1702752
 -0.1730781
 -0.1724763
 -0.1707382
 -0.1705122
 -0.1727157
 -0.1731162
 -0.1710038
 -0.1705895
 -0.1721287
 -0.1738982
 -0.1711817
 -0.1706400
 -0.1713157
 -0.1737185
 -0.1714168
 -0.1710301
 -0.1712213
 -0.1740985
 -0.1718350
 -0.1707974
 -0.1707025
 -0.1735811
 -0.1724677
 -0.1710806
 -0.1707626
 -0.1733246
 -0.1733713
 -0.1712756
 -0.1707711
 -0.1723252
 -0.1735015
 -0.1711016
 -0.1709304
 -0.1719122
 -0.1739269
 -0.1713948
 -0.1710315
 -0.1714525
 -0.1741295
 -0.1718955
 -0.1711750
 -0.1710644
 -0.1738420
 -0.1723366
 -0.1710081
 -0.1706782
 -0.1732679
 -0.1726203
 -0.1703081
 -0.1696701
 -0.1716418
 -0.1722698
 -0.1696854
 -0.1692128
 -0.1704273
 -0.1723008
 -0.1697798
 -0.1692929
 -0.1697626
 -0.1725302
 -0.1701741
 -0.1696215
 -0.1697250
 -0.1727386
 -0.1711540
 -0.1704426
 -0.1704359
 -0.1735144
 -0.1730495
 -0.1715389
 -0.1711493
 -0.1731987
 -0.1734753
 -0.1714840
 -0.1713777
 -0.1730542
 -0.1743875
 -0.1718850
 -0.1715198
 -0.1723123
 -0.1744814
 -0.1719442
 -0.1712947
 -0.1717668
 -0.1751166
 -0.1734734
 -0.1724982
 -0.1716128
 -0.1731549
 -0.1693335
 -0.1643129
 -0.1599517
 -0.1586065
 -0.1555705
 -0.1514106
 -0.1508627
 -0.1561580
 -0.1621728
 -0.1649122
 -0.1670323
 -0.1687608
 -0.1712318
 -0.1689978
 -0.1690116
 -0.1699934
 -0.1731119
 -0.1712790
 -0.1705961
 -0.1705480
 -0.1734896
 -0.1719766
 -0.1708923
 -0.1705370
 -0.1731787
 -0.1726160
 -0.1707921
 -0.1703649
 -0.1724181
 -0.1730771
 -0.1706014
 -0.1701799
 -0.1716509
 -0.1734362
 -0.1707378
 -0.1701470
 -0.1707278
 -0.1730809
 -0.1704045
 -0.1696205
 -0.1697312
 -0.1727257
 -0.1707697
 -0.1696940
 -0.1692715
 -0.1717801
 -0.1704912
 -0.1687384
 -0.1680656
 -0.1703716
 -0.1704283
 -0.1682396
 -0.1678000
 -0.1689511
 -0.1697893
 -0.1669750
 -0.1663542
 -0.1668148
 -0.1686726
 -0.1659174
 -0.1651693
 -0.1651926
 -0.1678801
 -0.1657229
 -0.1647849
 -0.1645284
 -0.1673193
 -0.1661668
 -0.1649475
 -0.1649428
 -0.1678772
 -0.1679712
 -0.1662946
 -0.1662736
 -0.1686034
 -0.1700816
 -0.1682983
 -0.1684613
 -0.1698981
 -0.1722245
 -0.1698866
 -0.1695938
 -0.1701951
 -0.1731849
 -0.1710863
 -0.1703844
 -0.1702757
 -0.1732679
 -0.1717763
 -0.1706190
 -0.1703387
 -0.1732264
 -0.1727634
 -0.1708904
 -0.1704092
 -0.1725087
 -0.1730280
 -0.1707154
 -0.1703797
 -0.1718722
 -0.1735840
 -0.1710005
 -0.1704927
 -0.1712184
 -0.1736460
 -0.1712280
 -0.1706252
 -0.1706438
 -0.1737256
 -0.1718307
 -0.1707521
 -0.1705866
 -0.1732464
 -0.1722045
 -0.1709523
 -0.1703053
 -0.1727433
 -0.1729508
 -0.1711188
 -0.1707864
 -0.1722532
 -0.1734519
 -0.1711855
 -0.1710429
 -0.1720100
 -0.1739555
 -0.1712914
 -0.1708656
 -0.1711703
 -0.1741204
 -0.1720176
 -0.1713634
 -0.1713066
 -0.1741300
 -0.1727185
 -0.1714411
 -0.1710091
 -0.1736198
 -0.1734920
 -0.1715002
 -0.1709347
 -0.1728292
 -0.1737113
 -0.1716485
 -0.1713495
 -0.1725311
 -0.1744638
 -0.1720600
 -0.1715603
 -0.1719327
 -0.1746760
 -0.1724506
 -0.1717882
 -0.1717844
 -0.1745720
 -0.1726380
 -0.1714268
 -0.1713309
 -0.1741376
 -0.1733008
 -0.1715160
 -0.1712198
 -0.1734619
 -0.1737843
 -0.1716023
 -0.1713257
 -0.1727662
 -0.1744037
 -0.1719828
 -0.1715746
 -0.1722980
 -0.1746683
 -0.1721926
 -0.1716128
 -0.1718645
 -0.1748042
 -0.1729756
 -0.1719780
 -0.1718292
 -0.1745510
 -0.1733260
 -0.1719437
 -0.1714883
 -0.1740060
 -0.1739235
 -0.1713743
 -0.1704645
 -0.1720333
 -0.1730643
 -0.1705008
 -0.1700492
 -0.1709609
 -0.1731258
 -0.1706538
 -0.1701298
 -0.1703005
 -0.1729698
 -0.1708875
 -0.1701856
 -0.1703615
 -0.1730876
 -0.1716275
 -0.1707812
 -0.1708694
 -0.1738639
 -0.1737471
 -0.1719737
 -0.1716981
 -0.1738100
 -0.1747375
 -0.1725269
 -0.1719766
 -0.1731806
 -0.1749997
 -0.1725202
 -0.1722746
 -0.1728068
 -0.1754656
 -0.1733203
 -0.1726794
 -0.1726580
 -0.1757384
 -0.1742373
 -0.1733408
 -0.1728602
 -0.1751957
 -0.1728997
 -0.1684647
 -0.1645241
 -0.1628289
 -0.1592426
 -0.1540895
 -0.1520276
 -0.1542502
 -0.1594191
 -0.1621323
 -0.1665273
 -0.1692925
 -0.1720138
 -0.1696453
 -0.1694236
 -0.1702304
 -0.1736531
 -0.1718459
 -0.1712566
 -0.1713982
 -0.1746435
 -0.1734081
 -0.1718097
 -0.1711655
 -0.1738177
 -0.1736565
 -0.1717243
 -0.1712532
 -0.1730857
 -0.1742330
 -0.1717882
 -0.1712580
 -0.1722694
 -0.1743570
 -0.1721096
 -0.1714092
 -0.1713367
 -0.1738606
 -0.1715460
 -0.1709538
 -0.1706820
 -0.1733980
 -0.1717811
 -0.1705418
 -0.1701622
 -0.1727352
 -0.1719775
 -0.1700869
 -0.1697259
 -0.1717434
 -0.1719175
 -0.1692043
 -0.1684809
 -0.1695996
 -0.1709595
 -0.1682153
 -0.1675310
 -0.1679950
 -0.1701412
 -0.1673050
 -0.1663451
 -0.1663017
 -0.1689048
 -0.1668382
 -0.1660118
 -0.1655259
 -0.1679568
 -0.1669240
 -0.1655450
 -0.1653533
 -0.1678834
 -0.1683445
 -0.1668163
 -0.1670146
 -0.1691580
 -0.1708536
 -0.1687174
 -0.1689453
 -0.1702447
 -0.1726704
 -0.1704107
 -0.1702476
 -0.1707726
 -0.1738348
 -0.1717138
 -0.1709838
 -0.1709419
 -0.1738677
 -0.1725803
 -0.1713453
 -0.1710482
 -0.1737080
 -0.1734767
 -0.1717406
 -0.1711559
 -0.1729245
 -0.1738577
 -0.1714754
 -0.1710267
 -0.1722985
 -0.1742573
 -0.1717215
 -0.1713209
 -0.1718583
 -0.1744647
 -0.1722203
 -0.1714049
 -0.1713805
 -0.1744170
 -0.1725340
 -0.1713906
 -0.1710677
 -0.1738010
 -0.1732698
 -0.1717863
 -0.1713472
 -0.1734262
 -0.1738520
 -0.1716404
 -0.1711297
 -0.1726499
 -0.1742020
 -0.1718464
 -0.1715927
 -0.1722279
 -0.1748047
 -0.1724367
 -0.1719265
 -0.1719141
 -0.1745711
 -0.1726594
 -0.1718826
 -0.1718927
 -0.1749225
 -0.1736360
 -0.1718993
 -0.1715622
 -0.1740046
 -0.1739354
 -0.1718536
 -0.1715727
 -0.1734038
 -0.1746307
 -0.1723952
 -0.1721258
 -0.1731510
 -0.1751757
 -0.1726814
 -0.1722827
 -0.1723805
 -0.1750608
 -0.1728168
 -0.1721063
 -0.1720743
 -0.1750121
 -0.1735673
 -0.1724110
 -0.1720019
 -0.1746550
 -0.1743741
 -0.1724148
 -0.1720262
 -0.1740728
 -0.1746540
 -0.1723023
 -0.1721745
 -0.1732927
 -0.1750889
 -0.1725850
 -0.1721626
 -0.1727362
 -0.1753192
 -0.1730304
 -0.1723976
 -0.1723333
 -0.1751843
 -0.1733737
 -0.1722956
 -0.1721773
 -0.1751023
 -0.1742630
 -0.1724844
 -0.1718936
 -0.1741991
 -0.1747093
 -0.1726384
 -0.1724572
 -0.1739774
 -0.1751919
 -0.1724806
 -0.1720987
 -0.1730056
 -0.1754022
 -0.1729593
 -0.1724134
 -0.1725383
 -0.1752024
 -0.1729555
 -0.1717324
 -0.1712532
 -0.1740017
 -0.1727576
 -0.1713128
 -0.1707554
 -0.1729088
 -0.1727863
 -0.1709933
 -0.1706925
 -0.1723628
 -0.1733070
 -0.1707177
 -0.1704421
 -0.1718307
 -0.1740771
 -0.1720491
 -0.1720557
 -0.1727848
 -0.1755023
 -0.1732707
 -0.1725908
 -0.1726923
 -0.1756115
 -0.1740413
 -0.1727972
 -0.1725645
 -0.1752095
 -0.1746807
 -0.1729827
 -0.1726551
 -0.1746707
 -0.1755176
 -0.1731811
 -0.1727467
 -0.1742072
 -0.1762743
 -0.1740775
 -0.1736412
 -0.1737137
 -0.1744800
 -0.1693273
 -0.1651550
 -0.1610141
 -0.1603031
 -0.1558466
 -0.1532092
 -0.1535063
 -0.1600919
 -0.1641751
 -0.1671305
 -0.1688547
 -0.1716838
 -0.1719952
 -0.1700258
 -0.1700630
 -0.1722584
 -0.1740465
 -0.1719985
 -0.1717925
 -0.1726327
 -0.1749397
 -0.1725941
 -0.1720782
 -0.1720123
 -0.1749263
 -0.1728249
 -0.1718903
 -0.1716166
 -0.1742883
 -0.1729732
 -0.1717701
 -0.1714802
 -0.1739640
 -0.1737170
 -0.1719384
 -0.1713271
 -0.1729021
 -0.1736517
 -0.1712389
 -0.1707187
 -0.1718421
 -0.1738391
 -0.1710935
 -0.1706004
 -0.1709142
 -0.1732311
 -0.1705599
 -0.1698251
 -0.1695986
 -0.1724248
 -0.1707115
 -0.1693835
 -0.1686521
 -0.1708322
 -0.1698957
 -0.1679774
 -0.1672869
 -0.1691423
 -0.1693883
 -0.1669545
 -0.1663118
 -0.1674538
 -0.1688009
 -0.1661024
 -0.1654897
 -0.1660619
 -0.1684571
 -0.1662169
 -0.1657925
 -0.1661401
 -0.1692257
 -0.1676660
 -0.1673031
 -0.1678429
 -0.1710134
 -0.1701269
 -0.1690164
 -0.1690002
 -0.1717839
 -0.1723218
 -0.1705380
 -0.1703448
 -0.1722713
 -0.1734925
 -0.1711703
 -0.1709814
 -0.1721626
 -0.1743365
 -0.1718145
 -0.1714339
 -0.1720557
 -0.1746564
 -0.1722703
 -0.1713700
 -0.1714020
 -0.1744433
 -0.1730561
 -0.1717901
 -0.1715417
 -0.1740895
 -0.1736403
 -0.1718168
 -0.1714549
 -0.1732784
 -0.1740060
 -0.1717930
 -0.1714764
 -0.1727662
 -0.1745281
 -0.1718292
 -0.1713057
 -0.1719232
 -0.1746149
 -0.1723886
 -0.1717887
 -0.1720414
 -0.1751108
 -0.1732784
 -0.1718588
 -0.1713724
 -0.1740365
 -0.1734276
 -0.1720519
 -0.1715923
 -0.1737905
 -0.1741486
 -0.1721506
 -0.1718831
 -0.1735249
 -0.1749864
 -0.1724692
 -0.1721306
 -0.1730156
 -0.1752119
 -0.1727162
 -0.1720767
 -0.1723170
 -0.1752548
 -0.1734109
 -0.1725159
 -0.1722617
 -0.1752467
 -0.1739507
 -0.1726084
 -0.1722403
 -0.1746483
 -0.1746969
 -0.1729579
 -0.1725373
 -0.1741834
 -0.1750622
 -0.1725931
 -0.1722026
 -0.1732350
 -0.1755290
 -0.1731286
 -0.1727748
 -0.1731653
 -0.1756835
 -0.1733151
 -0.1727243
 -0.1725483
 -0.1754861
 -0.1739230
 -0.1727486
 -0.1724057
 -0.1749668
 -0.1745334
 -0.1730437
 -0.1727729
 -0.1748071
 -0.1751361
 -0.1728425
 -0.1724372
 -0.1738053
 -0.1757341
 -0.1732226
 -0.1728730
 -0.1734185
 -0.1757851
 -0.1733961
 -0.1727581
 -0.1727286
 -0.1756249
 -0.1739536
 -0.1729193
 -0.1725383
 -0.1752672
 -0.1744251
 -0.1728163
 -0.1725421
 -0.1749974
 -0.1752439
 -0.1731787
 -0.1727386
 -0.1743632
 -0.1757870
 -0.1732588
 -0.1728311
 -0.1736574
 -0.1758352
 -0.1731906
 -0.1726108
 -0.1726971
 -0.1751929
 -0.1728959
 -0.1718559
 -0.1715431
 -0.1741014
 -0.1726566
 -0.1714115
 -0.1712175
 -0.1736593
 -0.1733189
 -0.1714416
 -0.1710453
 -0.1730004
 -0.1739187
 -0.1717811
 -0.1716838
 -0.1728912
 -0.1753311
 -0.1733351
 -0.1729903
 -0.1734472
 -0.1761589
 -0.1738792
 -0.1731315
 -0.1732359
 -0.1762061
 -0.1747217
 -0.1737080
 -0.1734529
 -0.1760321
 -0.1753912
 -0.1737814
 -0.1733828
 -0.1755181
 -0.1759711
 -0.1736245
 -0.1735420
 -0.1756525
 -0.1774202
 -0.1742382
 -0.1724291
 -0.1707397
 -0.1697855
 -0.1630912
 -0.1585612
 -0.1558476
 -0.1566410
 -0.1548753
 -0.1574998
 -0.1622977
 -0.1699810
 -0.1714545
 -0.1707177
 -0.1706915
 -0.1733608
 -0.1735945
 -0.1718407
 -0.1717930
 -0.1738568
 -0.1752458
 -0.1728854
 -0.1726313
 -0.1736217
 -0.1757927
 -0.1732569
 -0.1726613
 -0.1731115
 -0.1759095
 -0.1738148
 -0.1728707
 -0.1724310
 -0.1751428
 -0.1736603
 -0.1723404
 -0.1720152
 -0.1746884
 -0.1742840
 -0.1722398
 -0.1717515
 -0.1737743
 -0.1746516
 -0.1721769
 -0.1715741
 -0.1726961
 -0.1742373
 -0.1717744
 -0.1713128
 -0.1716323
 -0.1739159
 -0.1713572
 -0.1705804
 -0.1704021
 -0.1729150
 -0.1709991
 -0.1697555
 -0.1692372
 -0.1714626
 -0.1701923
 -0.1682792
 -0.1675372
 -0.1694970
 -0.1696458
 -0.1671791
 -0.1666179
 -0.1680827
 -0.1693659
 -0.1667805
 -0.1663594
 -0.1671562
 -0.1696153
 -0.1672859
 -0.1670656
 -0.1676903
 -0.1709304
 -0.1694241
 -0.1690154
 -0.1693058
 -0.1725455
 -0.1718083
 -0.1705752
 -0.1702643
 -0.1729956
 -0.1735401
 -0.1719532
 -0.1718078
 -0.1736560
 -0.1745601
 -0.1721163
 -0.1718054
 -0.1730862
 -0.1753502
 -0.1728802
 -0.1725412
 -0.1727886
 -0.1754108
 -0.1731525
 -0.1721888
 -0.1720858
 -0.1751766
 -0.1737128
 -0.1724701
 -0.1720534
 -0.1746350
 -0.1741500
 -0.1725550
 -0.1723476
 -0.1743078
 -0.1747475
 -0.1723619
 -0.1721997
 -0.1735501
 -0.1750980
 -0.1726093
 -0.1723399
 -0.1730728
 -0.1758461
 -0.1733194
 -0.1724992
 -0.1722937
 -0.1750288
 -0.1732774
 -0.1724205
 -0.1723461
 -0.1750846
 -0.1740766
 -0.1725579
 -0.1722198
 -0.1747222
 -0.1748400
 -0.1727033
 -0.1725111
 -0.1743050
 -0.1757703
 -0.1731858
 -0.1726222
 -0.1734166
 -0.1757608
 -0.1733165
 -0.1727195
 -0.1729670
 -0.1759439
 -0.1739555
 -0.1731205
 -0.1730538
 -0.1757317
 -0.1742468
 -0.1729756
 -0.1726570
 -0.1752267
 -0.1749454
 -0.1730910
 -0.1727433
 -0.1746531
 -0.1758285
 -0.1733742
 -0.1729021
 -0.1740966
 -0.1760774
 -0.1735168
 -0.1730595
 -0.1735139
 -0.1759415
 -0.1735573
 -0.1729064
 -0.1728645
 -0.1757050
 -0.1741824
 -0.1730137
 -0.1727967
 -0.1758008
 -0.1751633
 -0.1734343
 -0.1729422
 -0.1750002
 -0.1755276
 -0.1733003
 -0.1728764
 -0.1742835
 -0.1759653
 -0.1733289
 -0.1728430
 -0.1735344
 -0.1760926
 -0.1736980
 -0.1731830
 -0.1733089
 -0.1760817
 -0.1741824
 -0.1731048
 -0.1729069
 -0.1757498
 -0.1746497
 -0.1731405
 -0.1727758
 -0.1752715
 -0.1753459
 -0.1732841
 -0.1728983
 -0.1746068
 -0.1758361
 -0.1734958
 -0.1728616
 -0.1734829
 -0.1754875
 -0.1725550
 -0.1719179
 -0.1721301
 -0.1746283
 -0.1723008
 -0.1715813
 -0.1713314
 -0.1742468
 -0.1728831
 -0.1714859
 -0.1713281
 -0.1739092
 -0.1734987
 -0.1716500
 -0.1714201
 -0.1737595
 -0.1749048
 -0.1729555
 -0.1728249
 -0.1741080
 -0.1761732
 -0.1738434
 -0.1736274
 -0.1739907
 -0.1763697
 -0.1740546
 -0.1736064
 -0.1737719
 -0.1764965
 -0.1746321
 -0.1735287
 -0.1734119
 -0.1761093
 -0.1752620
 -0.1737347
 -0.1738143
 -0.1763578
 -0.1766806
 -0.1738682
 -0.1720376
 -0.1707373
 -0.1685758
 -0.1619668
 -0.1581178
 -0.1562295
 -0.1568141
 -0.1548019
 -0.1582365
 -0.1633673
 -0.1705737
 -0.1707187
 -0.1704464
 -0.1703558
 -0.1733570
 -0.1725412
 -0.1716147
 -0.1715961
 -0.1742177
 -0.1743541
 -0.1726384
 -0.1725445
 -0.1742883
 -0.1751433
 -0.1725040
 -0.1720915
 -0.1732841
 -0.1754461
 -0.1728482
 -0.1723199
 -0.1728626
 -0.1753364
 -0.1728721
 -0.1719699
 -0.1718192
 -0.1746726
 -0.1731782
 -0.1720925
 -0.1715594
 -0.1740117
 -0.1732712
 -0.1713243
 -0.1709461
 -0.1730156
 -0.1735039
 -0.1712012
 -0.1705804
 -0.1717744
 -0.1734085
 -0.1706982
 -0.1701613
 -0.1706529
 -0.1729427
 -0.1699753
 -0.1687794
 -0.1684842
 -0.1710973
 -0.1689992
 -0.1678152
 -0.1672335
 -0.1696544
 -0.1683970
 -0.1666947
 -0.1662531
 -0.1683493
 -0.1682840
 -0.1658697
 -0.1654725
 -0.1673260
 -0.1687832
 -0.1663714
 -0.1664167
 -0.1677838
 -0.1703611
 -0.1683984
 -0.1683755
 -0.1689906
 -0.1721840
 -0.1705604
 -0.1700239
 -0.1701856
 -0.1733976
 -0.1723023
 -0.1711769
 -0.1711850
 -0.1741233
 -0.1739264
 -0.1717744
 -0.1712823
 -0.1732035
 -0.1741333
 -0.1718540
 -0.1715059
 -0.1726527
 -0.1745649
 -0.1721544
 -0.1718126
 -0.1723390
 -0.1749664
 -0.1725679
 -0.1717749
 -0.1717959
 -0.1748166
 -0.1729641
 -0.1717262
 -0.1713448
 -0.1741419
 -0.1736665
 -0.1719127
 -0.1715641
 -0.1738324
 -0.1741724
 -0.1718602
 -0.1714964
 -0.1730232
 -0.1747537
 -0.1723380
 -0.1719465
 -0.1725145
 -0.1750055
 -0.1725359
 -0.1720123
 -0.1722021
 -0.1749916
 -0.1730495
 -0.1722412
 -0.1720929
 -0.1750264
 -0.1739650
 -0.1724200
 -0.1719008
 -0.1743546
 -0.1746454
 -0.1725097
 -0.1719694
 -0.1736722
 -0.1749239
 -0.1725731
 -0.1722155
 -0.1731301
 -0.1752339
 -0.1729069
 -0.1724801
 -0.1727233
 -0.1755748
 -0.1733942
 -0.1726084
 -0.1723294
 -0.1752405
 -0.1738367
 -0.1723700
 -0.1720600
 -0.1748576
 -0.1745234
 -0.1726823
 -0.1722589
 -0.1742726
 -0.1751347
 -0.1727128
 -0.1723585
 -0.1736288
 -0.1755815
 -0.1730247
 -0.1725936
 -0.1729865
 -0.1753822
 -0.1730929
 -0.1725579
 -0.1726198
 -0.1753416
 -0.1735645
 -0.1727920
 -0.1726175
 -0.1751957
 -0.1742172
 -0.1724415
 -0.1721401
 -0.1745901
 -0.1748476
 -0.1725421
 -0.1722627
 -0.1739273
 -0.1756039
 -0.1730767
 -0.1725383
 -0.1731630
 -0.1754303
 -0.1730557
 -0.1726585
 -0.1726699
 -0.1754198
 -0.1733976
 -0.1725249
 -0.1723490
 -0.1753822
 -0.1742788
 -0.1726670
 -0.1723428
 -0.1749740
 -0.1749988
 -0.1727925
 -0.1721568
 -0.1736880
 -0.1744123
 -0.1718502
 -0.1714387
 -0.1724673
 -0.1742530
 -0.1716514
 -0.1710210
 -0.1712823
 -0.1739450
 -0.1716523
 -0.1708846
 -0.1708489
 -0.1736160
 -0.1722527
 -0.1711006
 -0.1710386
 -0.1741348
 -0.1739187
 -0.1724115
 -0.1723595
 -0.1745324
 -0.1751375
 -0.1729975
 -0.1728125
 -0.1740866
 -0.1757517
 -0.1732998
 -0.1730805
 -0.1736937
 -0.1762920
 -0.1736746
 -0.1729284
 -0.1730938
 -0.1760555
 -0.1741190
 -0.1733313
 -0.1732893
 -0.1763153
 -0.1752625
 -0.1730166
 -0.1712485
 -0.1711540
 -0.1683164
 -0.1624885
 -0.1588040
 -0.1577583
 -0.1569948
 -0.1541953
 -0.1570831
 -0.1626959
 -0.1695805
 -0.1697836
 -0.1704726
 -0.1711636
 -0.1739598
 -0.1715036
 -0.1708880
 -0.1711097
 -0.1742444
 -0.1733155
 -0.1720886
 -0.1717644
 -0.1744137
 -0.1742692
 -0.1722126
 -0.1716418
 -0.1735087
 -0.1746779
 -0.1723700
 -0.1719170
 -0.1729474
 -0.1748715
 -0.1723309
 -0.1717138
 -0.1719909
 -0.1745134
 -0.1723395
 -0.1716724
 -0.1713805
 -0.1741891
 -0.1725321
 -0.1712513
 -0.1708708
 -0.1735587
 -0.1728244
 -0.1708446
 -0.1703115
 -0.1722679
 -0.1725731
 -0.1699152
 -0.1693578
 -0.1708889
 -0.1721764
 -0.1693683
 -0.1686382
 -0.1688466
 -0.1709657
 -0.1683388
 -0.1676307
 -0.1675825
 -0.1700430
 -0.1676626
 -0.1663490
 -0.1657424
 -0.1683455
 -0.1671968
 -0.1655936
 -0.1652780
 -0.1676936
 -0.1679716
 -0.1661787
 -0.1661253
 -0.1682434
 -0.1697931
 -0.1677771
 -0.1680489
 -0.1694441
 -0.1718383
 -0.1695781
 -0.1693588
 -0.1700754
 -0.1732540
 -0.1714292
 -0.1708102
 -0.1707583
 -0.1736899
 -0.1725192
 -0.1715179
 -0.1711507
 -0.1738768
 -0.1735192
 -0.1716309
 -0.1711998
 -0.1731501
 -0.1741276
 -0.1719341
 -0.1716724
 -0.1726947
 -0.1742668
 -0.1717501
 -0.1714654
 -0.1719151
 -0.1745053
 -0.1722508
 -0.1717057
 -0.1718836
 -0.1748486
 -0.1729937
 -0.1716433
 -0.1712103
 -0.1740227
 -0.1732784
 -0.1716757
 -0.1714654
 -0.1735306
 -0.1736388
 -0.1716423
 -0.1712413
 -0.1727491
 -0.1743980
 -0.1720257
 -0.1716843
 -0.1725383
 -0.1748390
 -0.1722665
 -0.1716800
 -0.1717811
 -0.1747022
 -0.1729751
 -0.1720863
 -0.1717930
 -0.1746960
 -0.1735211
 -0.1720872
 -0.1718765
 -0.1743942
 -0.1743145
 -0.1723223
 -0.1719980
 -0.1734791
 -0.1744848
 -0.1721878
 -0.1721425
 -0.1732841
 -0.1751452
 -0.1724453
 -0.1719141
 -0.1724153
 -0.1752076
 -0.1728635
 -0.1721530
 -0.1721010
 -0.1748834
 -0.1734872
 -0.1724668
 -0.1722589
 -0.1748414
 -0.1741491
 -0.1722841
 -0.1720224
 -0.1742110
 -0.1747036
 -0.1725164
 -0.1721297
 -0.1734009
 -0.1750488
 -0.1726756
 -0.1724320
 -0.1728573
 -0.1751952
 -0.1730128
 -0.1725121
 -0.1725946
 -0.1754275
 -0.1733647
 -0.1720715
 -0.1719508
 -0.1749931
 -0.1740418
 -0.1725564
 -0.1721387
 -0.1742249
 -0.1741691
 -0.1721811
 -0.1720209
 -0.1736546
 -0.1748853
 -0.1725884
 -0.1720972
 -0.1729078
 -0.1748572
 -0.1719122
 -0.1711736
 -0.1713739
 -0.1742578
 -0.1724119
 -0.1713271
 -0.1707301
 -0.1734524
 -0.1723237
 -0.1710706
 -0.1707921
 -0.1732369
 -0.1727042
 -0.1707521
 -0.1705604
 -0.1728258
 -0.1738591
 -0.1716261
 -0.1715775
 -0.1730023
 -0.1751580
 -0.1728554
 -0.1723991
 -0.1731420
 -0.1759072
 -0.1734228
 -0.1727128
 -0.1726852
 -0.1757198
 -0.1740442
 -0.1728635
 -0.1724339
 -0.1752777
 -0.1746698
 -0.1730395
 -0.1729117
 -0.1752205
 -0.1757531
 -0.1734467
 -0.1722269
 -0.1721268
 -0.1713186
 -0.1661425
 -0.1620794
 -0.1594134
 -0.1595154
 -0.1549039
 -0.1538763
 -0.1570721
 -0.1647039
 -0.1675205
 -0.1693173
 -0.1700583
 -0.1731744
 -0.1723738
 -0.1710091
 -0.1709085
 -0.1736531
 -0.1737461
 -0.1714940
 -0.1712237
 -0.1732059
 -0.1745062
 -0.1719399
 -0.1716051
 -0.1727162
 -0.1750169
 -0.1724482
 -0.1719017
 -0.1722212
 -0.1748343
 -0.1725698
 -0.1717177
 -0.1714597
 -0.1742153
 -0.1727734
 -0.1715002
 -0.1712628
 -0.1738820
 -0.1731329
 -0.1710639
 -0.1704521
 -0.1723190
 -0.1731148
 -0.1706276
 -0.1701670
 -0.1712575
 -0.1729589
 -0.1704769
 -0.1697927
 -0.1701098
 -0.1725207
 -0.1697965
 -0.1686545
 -0.1683645
 -0.1708560
 -0.1688338
 -0.1674118
 -0.1670175
 -0.1694093
 -0.1682458
 -0.1663656
 -0.1657663
 -0.1676655
 -0.1678887
 -0.1656370
 -0.1650300
 -0.1663575
 -0.1679363
 -0.1655770
 -0.1656041
 -0.1669450
 -0.1697331
 -0.1676550
 -0.1674690
 -0.1681357
 -0.1714378
 -0.1699124
 -0.1693702
 -0.1696449
 -0.1727543
 -0.1717172
 -0.1704030
 -0.1700745
 -0.1730089
 -0.1733713
 -0.1715079
 -0.1711383
 -0.1728664
 -0.1739407
 -0.1715465
 -0.1712208
 -0.1724181
 -0.1743417
 -0.1716991
 -0.1713667
 -0.1717491
 -0.1744347
 -0.1724944
 -0.1715741
 -0.1714554
 -0.1744452
 -0.1726542
 -0.1714559
 -0.1712890
 -0.1738901
 -0.1732235
 -0.1715393
 -0.1713858
 -0.1732793
 -0.1737600
 -0.1715861
 -0.1712384
 -0.1726294
 -0.1743970
 -0.1718021
 -0.1714559
 -0.1720672
 -0.1744108
 -0.1721611
 -0.1716857
 -0.1718235
 -0.1747203
 -0.1729069
 -0.1716786
 -0.1713329
 -0.1742716
 -0.1733213
 -0.1716848
 -0.1712470
 -0.1737266
 -0.1740794
 -0.1720438
 -0.1717506
 -0.1734033
 -0.1747341
 -0.1723914
 -0.1717382
 -0.1724668
 -0.1747894
 -0.1724539
 -0.1720877
 -0.1723199
 -0.1752124
 -0.1731787
 -0.1721883
 -0.1719279
 -0.1746364
 -0.1734214
 -0.1721392
 -0.1718960
 -0.1744018
 -0.1741648
 -0.1723266
 -0.1717978
 -0.1736946
 -0.1747494
 -0.1726113
 -0.1723771
 -0.1733594
 -0.1750679
 -0.1726608
 -0.1721888
 -0.1726690
 -0.1751900
 -0.1729675
 -0.1725168
 -0.1722903
 -0.1750922
 -0.1735335
 -0.1724987
 -0.1722346
 -0.1748347
 -0.1741314
 -0.1724653
 -0.1723070
 -0.1743636
 -0.1747141
 -0.1723342
 -0.1715832
 -0.1728902
 -0.1742707
 -0.1716366
 -0.1712947
 -0.1716814
 -0.1741109
 -0.1716728
 -0.1709390
 -0.1709089
 -0.1737542
 -0.1720257
 -0.1711531
 -0.1709218
 -0.1737108
 -0.1728993
 -0.1715856
 -0.1713691
 -0.1737457
 -0.1738043
 -0.1720123
 -0.1719880
 -0.1739578
 -0.1753864
 -0.1732316
 -0.1729350
 -0.1737037
 -0.1757126
 -0.1732979
 -0.1729536
 -0.1732688
 -0.1759844
 -0.1738043
 -0.1729927
 -0.1729093
 -0.1758061
 -0.1743622
 -0.1731758
 -0.1732116
 -0.1759033
 -0.1751013
 -0.1724453
 -0.1705055
 -0.1699629
 -0.1673813
 -0.1611481
 -0.1575036
 -0.1564689
 -0.1566897
 -0.1553083
 -0.1588321
 -0.1641889
 -0.1708636
 -0.1704359
 -0.1703024
 -0.1705561
 -0.1734586
 -0.1720567
 -0.1714020
 -0.1714945
 -0.1743565
 -0.1736236
 -0.1721196
 -0.1717873
 -0.1742845
 -0.1746526
 -0.1721559
 -0.1716428
 -0.1733246
 -0.1748734
 -0.1723280
 -0.1719160
 -0.1728196
 -0.1750212
 -0.1725135
 -0.1718869
 -0.1719036
 -0.1745858
 -0.1724892
 -0.1714177
 -0.1711760
 -0.1739092
 -0.1726461
 -0.1713200
 -0.1707754
 -0.1730972
 -0.1730290
 -0.1708131
 -0.1701393
 -0.1717825
 -0.1729174
 -0.1703377
 -0.1696992
 -0.1704126
 -0.1720133
 -0.1691508
 -0.1684766
 -0.1688338
 -0.1710372
 -0.1683083
 -0.1672797
 -0.1668620
 -0.1695509
 -0.1679292
 -0.1664686
 -0.1660810
 -0.1683936
 -0.1676374
 -0.1660600
 -0.1654782
 -0.1674900
 -0.1684852
 -0.1665693
 -0.1664968
 -0.1683507
 -0.1705995
 -0.1683846
 -0.1683607
 -0.1694250
 -0.1722665
 -0.1703282
 -0.1700530
 -0.1704512
 -0.1734100
 -0.1718168
 -0.1711474
 -0.1710816
 -0.1739011
 -0.1731391
 -0.1719270
 -0.1717930
 -0.1740794
 -0.1740885
 -0.1718049
 -0.1713944
 -0.1732097
 -0.1748209
 -0.1725512
 -0.1720457
 -0.1727462
 -0.1749196
 -0.1722899
 -0.1718455
 -0.1722737
 -0.1748214
 -0.1726814
 -0.1717477
 -0.1714931
 -0.1744676
 -0.1731305
 -0.1717358
 -0.1716252
 -0.1743942
 -0.1742048
 -0.1721964
 -0.1716333
 -0.1734481
 -0.1744552
 -0.1721611
 -0.1719480
 -0.1730538
 -0.1749916
 -0.1725116
 -0.1719914
 -0.1723557
 -0.1750570
 -0.1728397
 -0.1721678
 -0.1723190
 -0.1753149
 -0.1734777
 -0.1723628
 -0.1719399
 -0.1748476
 -0.1743584
 -0.1726275
 -0.1722446
 -0.1742835
 -0.1745825
 -0.1724000
 -0.1722555
 -0.1737633
 -0.1753803
 -0.1728635
 -0.1726384
 -0.1733384
 -0.1756406
 -0.1731453
 -0.1726828
 -0.1729136
 -0.1756792
 -0.1736894
 -0.1726313
 -0.1724806
 -0.1754680
 -0.1744857
 -0.1732726
 -0.1727214
 -0.1749907
 -0.1747318
 -0.1725846
 -0.1723871
 -0.1742301
 -0.1752453
 -0.1727891
 -0.1725369
 -0.1734319
 -0.1755591
 -0.1729794
 -0.1726480
 -0.1730061
 -0.1759081
 -0.1736365
 -0.1728120
 -0.1727729
 -0.1757074
 -0.1742525
 -0.1730299
 -0.1727448
 -0.1753631
 -0.1747732
 -0.1729069
 -0.1725445
 -0.1744075
 -0.1751223
 -0.1728149
 -0.1721721
 -0.1730733
 -0.1745043
 -0.1718683
 -0.1713772
 -0.1719556
 -0.1745386
 -0.1721325
 -0.1713562
 -0.1713262
 -0.1742134
 -0.1724658
 -0.1712613
 -0.1710243
 -0.1739474
 -0.1732693
 -0.1718998
 -0.1717038
 -0.1743112
 -0.1750055
 -0.1731963
 -0.1728544
 -0.1743965
 -0.1758757
 -0.1734038
 -0.1731401
 -0.1740413
 -0.1764655
 -0.1738339
 -0.1733642
 -0.1737757
 -0.1763602
 -0.1741624
 -0.1733599
 -0.1733260
 -0.1762824
 -0.1750951
 -0.1741433
 -0.1739936
 -0.1763029
 -0.1752181
 -0.1714931
 -0.1682954
 -0.1664982
 -0.1633406
 -0.1572833
 -0.1541538
 -0.1536031
 -0.1568852
 -0.1587157
 -0.1636214
 -0.1683288
 -0.1725502
 -0.1705532
 -0.1702042
 -0.1705318
 -0.1740532
 -0.1730237
 -0.1720338
 -0.1718865
 -0.1748700
 -0.1742821
 -0.1724935
 -0.1721692
 -0.1743965
 -0.1750107
 -0.1727801
 -0.1724844
 -0.1737738
 -0.1751948
 -0.1724668
 -0.1720772
 -0.1727724
 -0.1753030
 -0.1727910
 -0.1721106
 -0.1721935
 -0.1748462
 -0.1728502
 -0.1718435
 -0.1716085
 -0.1743083
 -0.1735172
 -0.1719175
 -0.1711025
 -0.1732297
 -0.1732078
 -0.1708870
 -0.1701098
 -0.1717262
 -0.1730767
 -0.1704846
 -0.1697965
 -0.1703029
 -0.1721177
 -0.1690898
 -0.1683741
 -0.1683741
 -0.1709552
 -0.1685558
 -0.1673727
 -0.1669259
 -0.1696038
 -0.1677566
 -0.1660118
 -0.1656828
 -0.1683312
 -0.1678548
 -0.1657887
 -0.1654349
 -0.1676212
 -0.1686483
 -0.1668272
 -0.1671758
 -0.1691408
 -0.1715465
 -0.1692758
 -0.1689902
 -0.1698036
 -0.1726322
 -0.1707068
 -0.1703677
 -0.1707430
 -0.1738630
 -0.1723571
 -0.1715551
 -0.1715546
 -0.1744766
 -0.1737695
 -0.1721888
 -0.1717158
 -0.1735711
 -0.1740842
 -0.1722026
 -0.1717239
 -0.1730819
 -0.1745701
 -0.1721101
 -0.1717515
 -0.1726027
 -0.1750713
 -0.1726980
 -0.1721997
 -0.1722737
 -0.1750374
 -0.1729379
 -0.1719923
 -0.1718097
 -0.1745587
 -0.1736069
 -0.1722274
 -0.1716666
 -0.1739416
 -0.1739531
 -0.1719909
 -0.1716547
 -0.1735025
 -0.1746268
 -0.1723929
 -0.1719814
 -0.1729269
 -0.1750117
 -0.1724925
 -0.1720524
 -0.1723857
 -0.1752453
 -0.1730213
 -0.1720782
 -0.1720362
 -0.1751061
 -0.1736407
 -0.1723275
 -0.1718431
 -0.1744762
 -0.1741529
 -0.1723728
 -0.1723013
 -0.1743531
 -0.1749282
 -0.1726799
 -0.1723399
 -0.1738072
 -0.1755328
 -0.1729508
 -0.1725698
 -0.1729617
 -0.1755133
 -0.1730862
 -0.1724391
 -0.1724959
 -0.1755009
 -0.1738138
 -0.1727810
 -0.1723309
 -0.1751147
 -0.1741219
 -0.1725335
 -0.1723318
 -0.1747174
 -0.1748638
 -0.1726279
 -0.1721158
 -0.1737194
 -0.1752420
 -0.1728683
 -0.1725669
 -0.1734209
 -0.1755557
 -0.1730237
 -0.1726275
 -0.1728001
 -0.1756096
 -0.1734114
 -0.1725774
 -0.1723905
 -0.1752706
 -0.1741491
 -0.1727305
 -0.1725025
 -0.1750655
 -0.1748891
 -0.1728959
 -0.1723318
 -0.1743407
 -0.1752606
 -0.1728821
 -0.1724806
 -0.1734729
 -0.1753702
 -0.1729055
 -0.1725750
 -0.1729546
 -0.1755381
 -0.1729880
 -0.1719585
 -0.1715622
 -0.1740813
 -0.1723256
 -0.1712871
 -0.1709008
 -0.1734867
 -0.1728277
 -0.1710053
 -0.1706267
 -0.1725517
 -0.1730809
 -0.1711755
 -0.1707344
 -0.1720233
 -0.1737604
 -0.1715737
 -0.1716047
 -0.1728664
 -0.1756010
 -0.1734090
 -0.1731277
 -0.1733051
 -0.1759668
 -0.1738157
 -0.1727786
 -0.1725564
 -0.1756754
 -0.1744929
 -0.1728683
 -0.1723829
 -0.1749950
 -0.1753440
 -0.1733799
 -0.1727638
 -0.1744180
 -0.1761451
 -0.1742339
 -0.1736484
 -0.1738172
 -0.1746407
 -0.1695256
 -0.1655965
 -0.1617542
 -0.1605144
 -0.1553393
 -0.1525903
 -0.1527476
 -0.1592369
 -0.1629048
 -0.1664944
 -0.1682577
 -0.1713176
 -0.1713119
 -0.1697788
 -0.1701446
 -0.1727653
 -0.1738906
 -0.1718822
 -0.1716323
 -0.1728254
 -0.1747904
 -0.1723247
 -0.1718469
 -0.1723256
 -0.1749468
 -0.1727367
 -0.1720643
 -0.1720362
 -0.1746936
 -0.1729927
 -0.1719346
 -0.1715179
 -0.1740613
 -0.1733418
 -0.1717749
 -0.1711722
 -0.1730747
 -0.1735540
 -0.1714521
 -0.1710553
 -0.1723876
 -0.1737170
 -0.1711197
 -0.1704769
 -0.1710649
 -0.1732540
 -0.1706348
 -0.1699715
 -0.1698766
 -0.1725321
 -0.1704078
 -0.1694041
 -0.1689601
 -0.1713491
 -0.1697560
 -0.1680622
 -0.1673951
 -0.1694360
 -0.1690407
 -0.1667562
 -0.1661549
 -0.1676059
 -0.1682720
 -0.1657710
 -0.1654310
 -0.1664252
 -0.1684838
 -0.1660981
 -0.1656680
 -0.1661458
 -0.1691756
 -0.1673475
 -0.1670866
 -0.1674156
 -0.1708694
 -0.1698036
 -0.1691027
 -0.1691351
 -0.1720329
 -0.1717429
 -0.1704726
 -0.1704779
 -0.1728039
 -0.1735130
 -0.1711793
 -0.1708417
 -0.1723891
 -0.1742511
 -0.1718183
 -0.1713648
 -0.1721006
 -0.1745515
 -0.1721626
 -0.1716933
 -0.1716924
 -0.1744290
 -0.1726246
 -0.1717906
 -0.1714406
 -0.1740465
 -0.1730190
 -0.1717692
 -0.1714688
 -0.1736264
 -0.1737113
 -0.1716485
 -0.1711722
 -0.1728158
 -0.1740885
 -0.1715775
 -0.1713248
 -0.1722436
 -0.1743899
 -0.1721115
 -0.1716433
 -0.1717868
 -0.1745014
 -0.1723027
 -0.1714907
 -0.1714292
 -0.1744743
 -0.1732440
 -0.1718731
 -0.1713848
 -0.1738615
 -0.1735907
 -0.1717224
 -0.1714068
 -0.1733623
 -0.1744180
 -0.1722579
 -0.1719008
 -0.1729808
 -0.1747318
 -0.1722217
 -0.1717549
 -0.1724401
 -0.1752706
 -0.1729036
 -0.1719775
 -0.1718912
 -0.1749077
 -0.1732321
 -0.1723395
 -0.1719880
 -0.1745959
 -0.1738649
 -0.1723094
 -0.1719647
 -0.1740799
 -0.1742802
 -0.1722808
 -0.1720038
 -0.1735916
 -0.1752935
 -0.1727677
 -0.1722574
 -0.1727276
 -0.1750994
 -0.1729422
 -0.1724277
 -0.1725240
 -0.1751824
 -0.1733551
 -0.1725221
 -0.1721454
 -0.1746626
 -0.1736074
 -0.1720867
 -0.1719232
 -0.1744280
 -0.1745277
 -0.1725993
 -0.1723199
 -0.1738758
 -0.1750560
 -0.1726713
 -0.1723619
 -0.1731868
 -0.1752291
 -0.1725688
 -0.1720076
 -0.1724286
 -0.1751371
 -0.1729412
 -0.1724086
 -0.1722613
 -0.1752401
 -0.1737995
 -0.1722722
 -0.1717739
 -0.1745033
 -0.1740952
 -0.1724482
 -0.1721840
 -0.1741290
 -0.1749649
 -0.1726785
 -0.1721435
 -0.1732741
 -0.1750369
 -0.1723891
 -0.1717820
 -0.1719341
 -0.1741920
 -0.1716976
 -0.1709156
 -0.1708908
 -0.1737013
 -0.1717706
 -0.1706472
 -0.1704936
 -0.1732516
 -0.1722279
 -0.1706019
 -0.1701699
 -0.1726628
 -0.1731458
 -0.1708808
 -0.1707096
 -0.1728363
 -0.1746721
 -0.1725059
 -0.1723128
 -0.1732540
 -0.1755138
 -0.1731777
 -0.1727486
 -0.1729188
 -0.1758323
 -0.1737056
 -0.1728378
 -0.1727867
 -0.1753850
 -0.1739865
 -0.1725793
 -0.1721029
 -0.1746526
 -0.1745758
 -0.1730151
 -0.1732407
 -0.1751137
 -0.1754890
 -0.1718855
 -0.1690250
 -0.1668077
 -0.1648503
 -0.1582394
 -0.1547475
 -0.1531120
 -0.1554666
 -0.1564508
 -0.1605778
 -0.1655154
 -0.1710067
 -0.1701107
 -0.1693254
 -0.1693611
 -0.1724439
 -0.1723652
 -0.1711183
 -0.1710210
 -0.1732688
 -0.1740523
 -0.1717820
 -0.1713939
 -0.1729026
 -0.1746659
 -0.1720720
 -0.1716771
 -0.1721893
 -0.1744566
 -0.1720915
 -0.1714440
 -0.1713438
 -0.1742606
 -0.1724453
 -0.1714239
 -0.1710601
 -0.1737824
 -0.1725664
 -0.1707597
 -0.1702519
 -0.1725860
 -0.1727314
 -0.1704879
 -0.1701508
 -0.1715512
 -0.1726632
 -0.1702719
 -0.1697812
 -0.1705213
 -0.1726051
 -0.1699228
 -0.1691475
 -0.1691737
 -0.1716585
 -0.1691132
 -0.1679354
 -0.1672659
 -0.1696997
 -0.1681385
 -0.1664777
 -0.1659098
 -0.1683216
 -0.1678252
 -0.1655302
 -0.1649900
 -0.1667190
 -0.1675406
 -0.1653333
 -0.1650033
 -0.1662498
 -0.1682039
 -0.1659064
 -0.1658058
 -0.1668177
 -0.1700411
 -0.1681352
 -0.1678500
 -0.1683622
 -0.1716590
 -0.1703029
 -0.1693807
 -0.1691508
 -0.1722236
 -0.1718788
 -0.1704235
 -0.1702957
 -0.1725230
 -0.1729803
 -0.1707621
 -0.1704211
 -0.1719122
 -0.1735001
 -0.1710377
 -0.1705494
 -0.1712589
 -0.1737719
 -0.1713429
 -0.1708188
 -0.1709457
 -0.1737814
 -0.1718531
 -0.1710096
 -0.1708956
 -0.1737004
 -0.1724153
 -0.1706710
 -0.1701589
 -0.1727848
 -0.1729288
 -0.1709371
 -0.1704436
 -0.1722808
 -0.1735301
 -0.1711774
 -0.1708203
 -0.1718483
 -0.1737647
 -0.1711555
 -0.1707201
 -0.1711450
 -0.1738882
 -0.1717854
 -0.1711555
 -0.1711254
 -0.1740256
 -0.1725145
 -0.1712942
 -0.1709919
 -0.1735049
 -0.1729198
 -0.1711498
 -0.1709185
 -0.1729031
 -0.1737533
 -0.1715570
 -0.1710878
 -0.1722918
 -0.1742573
 -0.1716905
 -0.1712194
 -0.1718841
 -0.1745920
 -0.1723561
 -0.1717348
 -0.1717825
 -0.1746164
 -0.1727061
 -0.1716142
 -0.1711760
 -0.1739269
 -0.1731367
 -0.1716662
 -0.1712923
 -0.1736179
 -0.1739912
 -0.1716600
 -0.1713233
 -0.1729083
 -0.1741476
 -0.1717801
 -0.1713982
 -0.1721101
 -0.1744776
 -0.1719914
 -0.1716719
 -0.1720128
 -0.1747284
 -0.1725903
 -0.1717158
 -0.1715846
 -0.1742940
 -0.1730528
 -0.1718579
 -0.1715574
 -0.1740275
 -0.1737290
 -0.1719008
 -0.1716213
 -0.1735764
 -0.1743970
 -0.1718922
 -0.1714816
 -0.1723972
 -0.1743398
 -0.1717620
 -0.1715532
 -0.1720753
 -0.1746702
 -0.1724048
 -0.1717048
 -0.1717420
 -0.1746021
 -0.1729202
 -0.1718407
 -0.1715031
 -0.1740976
 -0.1735368
 -0.1718302
 -0.1714273
 -0.1734486
 -0.1741104
 -0.1719427
 -0.1715551
 -0.1730318
 -0.1746440
 -0.1720333
 -0.1713939
 -0.1717649
 -0.1736756
 -0.1709633
 -0.1704545
 -0.1705227
 -0.1732998
 -0.1713782
 -0.1701851
 -0.1698046
 -0.1726680
 -0.1718230
 -0.1701727
 -0.1698137
 -0.1723371
 -0.1726113
 -0.1706324
 -0.1704769
 -0.1724897
 -0.1739969
 -0.1721926
 -0.1721750
 -0.1730747
 -0.1748805
 -0.1722818
 -0.1717234
 -0.1719856
 -0.1750112
 -0.1728802
 -0.1720171
 -0.1720877
 -0.1750002
 -0.1737457
 -0.1725326
 -0.1721306
 -0.1744023
 -0.1740394
 -0.1723967
 -0.1724444
 -0.1743913
 -0.1747661
 -0.1710768
 -0.1685415
 -0.1669574
 -0.1651702
 -0.1590042
 -0.1556401
 -0.1540251
 -0.1557594
 -0.1560183
 -0.1603141
 -0.1651621
 -0.1711445
 -0.1706705
 -0.1699243
 -0.1699133
 -0.1727877
 -0.1722450
 -0.1709085
 -0.1707258
 -0.1728311
 -0.1732288
 -0.1709628
 -0.1706777
 -0.1724129
 -0.1741371
 -0.1716337
 -0.1712785
 -0.1720128
 -0.1743522
 -0.1718006
 -0.1712079
 -0.1712594
 -0.1741080
 -0.1721258
 -0.1710339
 -0.1707087
 -0.1735058
 -0.1723409
 -0.1706701
 -0.1701069
 -0.1726456
 -0.1726465
 -0.1704722
 -0.1699858
 -0.1716442
 -0.1726155
 -0.1699176
 -0.1694317
 -0.1704874
 -0.1725173
 -0.1697769
 -0.1688204
 -0.1689587
 -0.1713224
 -0.1687079
 -0.1676293
 -0.1671891
 -0.1698656
 -0.1679225
 -0.1662102
 -0.1658931
 -0.1685863
 -0.1677923
 -0.1657300
 -0.1648703
 -0.1667114
 -0.1672898
 -0.1649757
 -0.1646123
 -0.1661501
 -0.1680784
 -0.1658387
 -0.1659165
 -0.1669855
 -0.1699963
 -0.1680026
 -0.1676583
 -0.1682906
 -0.1717162
 -0.1702004
 -0.1695285
 -0.1695371
 -0.1725145
 -0.1716790
 -0.1701684
 -0.1699362
 -0.1724196
 -0.1728244
 -0.1708818
 -0.1707297
 -0.1722665
 -0.1734882
 -0.1709533
 -0.1705690
 -0.1714473
 -0.1737514
 -0.1714273
 -0.1712551
 -0.1717029
 -0.1744986
 -0.1722427
 -0.1711302
 -0.1709371
 -0.1737375
 -0.1723156
 -0.1709919
 -0.1706448
 -0.1732617
 -0.1731830
 -0.1710668
 -0.1706853
 -0.1727848
 -0.1737600
 -0.1712775
 -0.1710887
 -0.1723438
 -0.1741772
 -0.1714559
 -0.1709662
 -0.1713238
 -0.1738625
 -0.1718350
 -0.1712165
 -0.1711631
 -0.1740709
 -0.1724239
 -0.1713248
 -0.1712270
 -0.1741066
 -0.1733737
 -0.1715226
 -0.1709662
 -0.1731839
 -0.1737890
 -0.1718660
 -0.1716023
