C, 00, 00, 0, 0, 0, 0,  0.0317087, -0.2217737, -0.2161722, -0.2401891, -0.2963186, -0.2478199, -0.3100725, -1.0237237
C, 00, 00, 0, 0, 0, 0,  0.0316253, -0.2164049, -0.2157793, -0.2398382, -0.2959910, -0.2474795, -0.3096753, -1.0232793
C, 00, 00, 0, 0, 0, 0,  0.0317020, -0.2189069, -0.2161751, -0.2401638, -0.2964101, -0.2479167, -0.3101874, -1.0239478
C, 00, 00, 0, 0, 0, 0,  0.0315352, -0.2254982, -0.2168679, -0.2408095, -0.2970882, -0.2486301, -0.3109823, -1.0249697
C, 00, 00, 0, 0, 0, 0,  0.0314193, -0.2267776, -0.2168279, -0.2407937, -0.2970271, -0.2485400, -0.3109098, -1.0248863
C, 00, 00, 0, 0, 0, 0,  0.0313921, -0.2206340, -0.2162519, -0.2402993, -0.2964912, -0.2479716, -0.3102398, -1.0240752
C, 00, 00, 0, 0, 0, 0,  0.0311604, -0.2150278, -0.2157626, -0.2397991, -0.2960415, -0.2474995, -0.3096981, -1.0234367
C, 00, 00, 0, 0, 0, 0,  0.0310259, -0.2172666, -0.2160960, -0.2400575, -0.2963953, -0.2478876, -0.3101316, -1.0240275
C, 00, 00, 0, 0, 0, 0,  0.0312572, -0.2237697, -0.2166443, -0.2405367, -0.2969094, -0.2484222, -0.3107734, -1.0248352
C, 00, 00, 0, 0, 0, 0,  0.0317516, -0.2252159, -0.2167363, -0.2406755, -0.2970119, -0.2485047, -0.3108678, -1.0249397
C, 00, 00, 0, 0, 0, 0,  0.0316815, -0.2191205, -0.2160850, -0.2401300, -0.2964292, -0.2478638, -0.3101464, -1.0240327
C, 00, 00, 0, 0, 0, 0,  0.0314736, -0.2133618, -0.2155934, -0.2396865, -0.2960101, -0.2474289, -0.3096424, -1.0234343
C, 00, 00, 0, 0, 0, 0,  0.0314970, -0.2153693, -0.2158399, -0.2398472, -0.2962690, -0.2477303, -0.3099800, -1.0238835
C, 00, 00, 0, 0, 0, 0,  0.0315394, -0.2219253, -0.2165041, -0.2404232, -0.2969132, -0.2484227, -0.3107586, -1.0248729
C, 00, 00, 0, 0, 0, 0,  0.0315661, -0.2235637, -0.2165370, -0.2404495, -0.2969399, -0.2484351, -0.3107739, -1.0248987
C, 00, 00, 0, 0, 0, 0,  0.0316277, -0.2175899, -0.2159043, -0.2399159, -0.2963720, -0.2478466, -0.3100739, -1.0240465
C, 00, 00, 0, 0, 0, 0,  0.0316973, -0.2117443, -0.2153764, -0.2394100, -0.2959175, -0.2473684, -0.3095289, -1.0234138
C, 00, 00, 0, 0, 0, 0,  0.0314407, -0.2136503, -0.2157054, -0.2396393, -0.2962542, -0.2477317, -0.3099423, -1.0239941
C, 00, 00, 0, 0, 0, 0,  0.0313358, -0.2202468, -0.2162872, -0.2400995, -0.2967897, -0.2482763, -0.3105936, -1.0248386
C, 00, 00, 0, 0, 0, 0,  0.0312862, -0.2221666, -0.2164135, -0.2402325, -0.2969232, -0.2483959, -0.3107176, -1.0250021
C, 00, 00, 0, 0, 0, 0,  0.0310817, -0.2163954, -0.2157684, -0.2396651, -0.2963305, -0.2477522, -0.3099947, -1.0241066
C, 00, 00, 0, 0, 0, 0,  0.0312309, -0.2105756, -0.2153049, -0.2392607, -0.2959657, -0.2473798, -0.3095565, -1.0236017
C, 00, 00, 0, 0, 0, 0,  0.0314446, -0.2123885, -0.2155109, -0.2394114, -0.2962165, -0.2476483, -0.3098817, -1.0240513
C, 00, 00, 0, 0, 0, 0,  0.0314279, -0.2190976, -0.2161412, -0.2399469, -0.2968111, -0.2482710, -0.3105946, -1.0249845
C, 00, 00, 0, 0, 0, 0,  0.0312676, -0.2213245, -0.2162676, -0.2400232, -0.2969084, -0.2483554, -0.3106876, -1.0251046
C, 00, 00, 0, 0, 0, 0,  0.0311708, -0.2158094, -0.2156844, -0.2395268, -0.2963896, -0.2478066, -0.3100300, -1.0243040
C, 00, 00, 0, 0, 0, 0,  0.0311918, -0.2099686, -0.2151585, -0.2390313, -0.2959299, -0.2473369, -0.3094783, -1.0236474
C, 00, 00, 0, 0, 0, 0,  0.0311089, -0.2117186, -0.2154670, -0.2392717, -0.2962518, -0.2476979, -0.3098817, -1.0242049
C, 00, 00, 0, 0, 0, 0,  0.0307674, -0.2185254, -0.2160759, -0.2397714, -0.2968073, -0.2482772, -0.3105669, -1.0250851
C, 00, 00, 0, 0, 0, 0,  0.0307674, -0.2210722, -0.2162800, -0.2399640, -0.2969976, -0.2484627, -0.3107691, -1.0253478
C, 00, 00, 0, 0, 0, 0,  0.0307956, -0.2158013, -0.2156897, -0.2394405, -0.2964621, -0.2478638, -0.3100930, -1.0245310
C, 00, 00, 0, 0, 0, 0,  0.0308604, -0.2099557, -0.2151799, -0.2389760, -0.2960329, -0.2474084, -0.3095565, -1.0239087
C, 00, 00, 0, 0, 0, 0,  0.0308228, -0.2115913, -0.2153869, -0.2391134, -0.2962785, -0.2476721, -0.3098665, -1.0243450
C, 00, 00, 0, 0, 0, 0,  0.0308671, -0.2184882, -0.2160225, -0.2396817, -0.2969041, -0.2483187, -0.3106003, -1.0253125
C, 00, 00, 0, 0, 0, 0,  0.0309725, -0.2212916, -0.2161880, -0.2398382, -0.2970491, -0.2484536, -0.3107462, -1.0254990
C, 00, 00, 0, 0, 0, 0,  0.0310106, -0.2162404, -0.2156472, -0.2394004, -0.2965637, -0.2479401, -0.3101206, -1.0247504
C, 00, 00, 0, 0, 0, 0,  0.0308399, -0.2103858, -0.2151447, -0.2389274, -0.2961178, -0.2474613, -0.3095775, -1.0241138
C, 00, 00, 0, 0, 0, 0,  0.0308838, -0.2119150, -0.2154022, -0.2391095, -0.2963744, -0.2477556, -0.3099118, -1.0245796
C, 00, 00, 0, 0, 0, 0,  0.0309219, -0.2188664, -0.2160049, -0.2395964, -0.2969175, -0.2483254, -0.3105836, -1.0254370
C, 00, 00, 0, 0, 0, 0,  0.0310111, -0.2219477, -0.2162547, -0.2398353, -0.2971464, -0.2485428, -0.3108340, -1.0257617
C, 00, 00, 0, 0, 0, 0,  0.0308218, -0.2171073, -0.2157116, -0.2393565, -0.2966285, -0.2479883, -0.3101974, -1.0249769
C, 00, 00, 0, 0, 0, 0,  0.0307255, -0.2111969, -0.2151914, -0.2389040, -0.2961579, -0.2475200, -0.3096252, -1.0243150
C, 00, 00, 0, 0, 0, 0,  0.0309315, -0.2125507, -0.2153654, -0.2390223, -0.2963295, -0.2477274, -0.3098660, -1.0246736
C, 00, 00, 0, 0, 0, 0,  0.0308619, -0.2195459, -0.2160473, -0.2396097, -0.2969671, -0.2484079, -0.3106456, -1.0256830
C, 00, 00, 0, 0, 0, 0,  0.0308166, -0.2228337, -0.2162619, -0.2398043, -0.2971402, -0.2485633, -0.3108364, -1.0259253
C, 00, 00, 0, 0, 0, 0,  0.0308671, -0.2181850, -0.2158256, -0.2394662, -0.2967329, -0.2481332, -0.3103319, -1.0253145
C, 00, 00, 0, 0, 0, 0,  0.0307636, -0.2122369, -0.2152725, -0.2389784, -0.2962313, -0.2476106, -0.3097368, -1.0246173
C, 00, 00, 0, 0, 0, 0,  0.0306792, -0.2134266, -0.2154489, -0.2391105, -0.2964168, -0.2478309, -0.3099757, -1.0249807
C, 00, 00, 0, 0, 0, 0,  0.0307531, -0.2203913, -0.2160683, -0.2396121, -0.2969895, -0.2484341, -0.3106742, -1.0258957
C, 00, 00, 0, 0, 0, 0,  0.0309591, -0.2238789, -0.2163296, -0.2398649, -0.2972317, -0.2486544, -0.3109370, -1.0262505
C, 00, 00, 0, 0, 0, 0,  0.0311103, -0.2193742, -0.2158375, -0.2394591, -0.2967759, -0.2481442, -0.3103743, -1.0255605
C, 00, 00, 0, 0, 0, 0,  0.0307426, -0.2133603, -0.2153378, -0.2390223, -0.2963333, -0.2476831, -0.3098307, -1.0249311
C, 00, 00, 0, 0, 0, 0,  0.0306048, -0.2143407, -0.2154570, -0.2390929, -0.2964540, -0.2478156, -0.3099909, -1.0252010
C, 00, 00, 0, 0, 0, 0,  0.0308914, -0.2212615, -0.2161365, -0.2396951, -0.2970786, -0.2484675, -0.3107510, -1.0262142
C, 00, 00, 0, 0, 0, 0,  0.0308461, -0.2249079, -0.2163706, -0.2399183, -0.2972784, -0.2486391, -0.3109751, -1.0265051
C, 00, 00, 0, 0, 0, 0,  0.0307193, -0.2205534, -0.2159658, -0.2395926, -0.2968922, -0.2482124, -0.3104787, -1.0259029
C, 00, 00, 0, 0, 0, 0,  0.0307198, -0.2144151, -0.2153974, -0.2390852, -0.2963729, -0.2476654, -0.3098469, -1.0251519
C, 00, 00, 0, 0, 0, 0,  0.0306926, -0.2151857, -0.2155547, -0.2392106, -0.2965317, -0.2478686, -0.3100543, -1.0254675
C, 00, 00, 0, 0, 0, 0,  0.0308170, -0.2220569, -0.2162357, -0.2397824, -0.2971368, -0.2485099, -0.3107949, -1.0264174
C, 00, 00, 0, 0, 0, 0,  0.0307961, -0.2258683, -0.2165551, -0.2400933, -0.2974058, -0.2487674, -0.3110924, -1.0267917
C, 00, 00, 0, 0, 0, 0,  0.0306063, -0.2216139, -0.2160492, -0.2396779, -0.2969094, -0.2482214, -0.3104835, -1.0260497
C, 00, 00, 0, 0, 0, 0,  0.0308051, -0.2153464, -0.2154794, -0.2392102, -0.2963930, -0.2476855, -0.3098555, -1.0253192
C, 00, 00, 0, 0, 0, 0,  0.0308175, -0.2158590, -0.2155819, -0.2392741, -0.2964959, -0.2478047, -0.3100009, -1.0255514
C, 00, 00, 0, 0, 0, 0,  0.0307970, -0.2226453, -0.2162638, -0.2398758, -0.2971449, -0.2484742, -0.3107887, -1.0265538
C, 00, 00, 0, 0, 0, 0,  0.0307951, -0.2265897, -0.2165666, -0.2401352, -0.2974043, -0.2487159, -0.3110762, -1.0269123
C, 00, 00, 0, 0, 0, 0,  0.0306315, -0.2224794, -0.2161560, -0.2398057, -0.2970128, -0.2482887, -0.3105526, -1.0262948
C, 00, 00, 0, 0, 0, 0,  0.0306444, -0.2161398, -0.2155652, -0.2392731, -0.2964697, -0.2477103, -0.3098755, -1.0255019
C, 00, 00, 0, 0, 0, 0,  0.0308614, -0.2164383, -0.2156635, -0.2393575, -0.2966028, -0.2478595, -0.3100396, -1.0257741
C, 00, 00, 0, 0, 0, 0,  0.0307274, -0.2231479, -0.2163134, -0.2399049, -0.2971979, -0.2484875, -0.3107758, -1.0267097
C, 00, 00, 0, 0, 0, 0,  0.0306912, -0.2272234, -0.2166305, -0.2401996, -0.2974644, -0.2487355, -0.3110700, -1.0270945
C, 00, 00, 0, 0, 0, 0,  0.0306687, -0.2232247, -0.2161551, -0.2398129, -0.2969890, -0.2482248, -0.3104878, -1.0263869
C, 00, 00, 0, 0, 0, 0,  0.0306563, -0.2168379, -0.2156363, -0.2393942, -0.2965374, -0.2477570, -0.3099380, -1.0257298
C, 00, 00, 0, 0, 0, 0,  0.0305920, -0.2169476, -0.2157312, -0.2394405, -0.2966361, -0.2478600, -0.3100639, -1.0259467
C, 00, 00, 0, 0, 0, 0,  0.0302854, -0.2235909, -0.2164016, -0.2400260, -0.2972575, -0.2485094, -0.3108206, -1.0269338
C, 00, 00, 0, 0, 0, 0,  0.0303845, -0.2278118, -0.2166548, -0.2402678, -0.2974611, -0.2487078, -0.3110619, -1.0272356
C, 00, 00, 0, 0, 0, 0,  0.0307055, -0.2239876, -0.2162380, -0.2399817, -0.2970753, -0.2482868, -0.3105617, -1.0266353
C, 00, 00, 0, 0, 0, 0,  0.0306745, -0.2175150, -0.2156716, -0.2394853, -0.2965408, -0.2477279, -0.3099246, -1.0258752
C, 00, 00, 0, 0, 0, 0,  0.0304704, -0.2174063, -0.2157603, -0.2395497, -0.2966462, -0.2478562, -0.3100577, -1.0260931
C, 00, 00, 0, 0, 0, 0,  0.0305214, -0.2239580, -0.2163883, -0.2400737, -0.2972155, -0.2484551, -0.3107615, -1.0270039
C, 00, 00, 0, 0, 0, 0,  0.0305176, -0.2284026, -0.2167959, -0.2404714, -0.2975779, -0.2488227, -0.3111825, -1.0275461
C, 00, 00, 0, 0, 0, 0,  0.0305038, -0.2247572, -0.2163487, -0.2401071, -0.2971492, -0.2483516, -0.3106532, -1.0268775
C, 00, 00, 0, 0, 0, 0,  0.0306463, -0.2182160, -0.2157445, -0.2395878, -0.2966056, -0.2477761, -0.3099881, -1.0260850
C, 00, 00, 0, 0, 0, 0,  0.0306048, -0.2179070, -0.2157665, -0.2395697, -0.2966395, -0.2478075, -0.3100548, -1.0262257
C, 00, 00, 0, 0, 0, 0,  0.0306301, -0.2244315, -0.2164369, -0.2401748, -0.2972746, -0.2484722, -0.3108292, -1.0272352
C, 00, 00, 0, 0, 0, 0,  0.0308914, -0.2290373, -0.2168069, -0.2405162, -0.2975850, -0.2487698, -0.3112069, -1.0277110
C, 00, 00, 0, 0, 0, 0,  0.0307937, -0.2255855, -0.2164221, -0.2402053, -0.2971883, -0.2483378, -0.3107129, -1.0271155
C, 00, 00, 0, 0, 0, 0,  0.0304041, -0.2190290, -0.2158151, -0.2396670, -0.2966137, -0.2477293, -0.3100238, -1.0262829
C, 00, 00, 0, 0, 0, 0,  0.0304227, -0.2185860, -0.2159281, -0.2397518, -0.2967463, -0.2478781, -0.3101960, -1.0265590
C, 00, 00, 0, 0, 0, 0,  0.0306029, -0.2250700, -0.2165456, -0.2402668, -0.2973209, -0.2484622, -0.3109079, -1.0274831
C, 00, 00, 0, 0, 0, 0,  0.0307293, -0.2298341, -0.2169118, -0.2406211, -0.2976451, -0.2487741, -0.3112789, -1.0279642
C, 00, 00, 0, 0, 0, 0,  0.0308251, -0.2265935, -0.2165041, -0.2402835, -0.2972432, -0.2483077, -0.3107686, -1.0273396
C, 00, 00, 0, 0, 0, 0,  0.0308108, -0.2200766, -0.2159691, -0.2398258, -0.2967625, -0.2478128, -0.3101797, -1.0266396
C, 00, 00, 0, 0, 0, 0,  0.0308199, -0.2194538, -0.2159853, -0.2397905, -0.2967868, -0.2478319, -0.3102394, -1.0267469
C, 00, 00, 0, 0, 0, 0,  0.0307941, -0.2258878, -0.2166448, -0.2403627, -0.2973996, -0.2484699, -0.3109951, -1.0277225
C, 00, 00, 0, 0, 0, 0,  0.0309076, -0.2308278, -0.2169695, -0.2406702, -0.2976747, -0.2487202, -0.3113246, -1.0281559
C, 00, 00, 0, 0, 0, 0,  0.0308895, -0.2277947, -0.2166066, -0.2404180, -0.2973523, -0.2483516, -0.3109045, -1.0276591
C, 00, 00, 0, 0, 0, 0,  0.0306201, -0.2212601, -0.2160197, -0.2399092, -0.2968116, -0.2477842, -0.3102537, -1.0268818
C, 00, 00, 0, 0, 0, 0,  0.0306978, -0.2204700, -0.2160731, -0.2399535, -0.2968860, -0.2478724, -0.3103423, -1.0270702
C, 00, 00, 0, 0, 0, 0,  0.0309219, -0.2268210, -0.2166724, -0.2404619, -0.2974372, -0.2484317, -0.3110242, -1.0279619
C, 00, 00, 0, 0, 0, 0,  0.0308938, -0.2319336, -0.2170720, -0.2408414, -0.2977815, -0.2487817, -0.3114272, -1.0284950
C, 00, 00, 0, 0, 0, 0,  0.0306220, -0.2290812, -0.2166901, -0.2405377, -0.2973905, -0.2483683, -0.3109355, -1.0278946
C, 00, 00, 0, 0, 0, 0,  0.0306115, -0.2225023, -0.2161274, -0.2400775, -0.2968746, -0.2478428, -0.3103004, -1.0271393
C, 00, 00, 0, 0, 0, 0,  0.0307899, -0.2215076, -0.2161441, -0.2400637, -0.2968951, -0.2478605, -0.3103500, -1.0272542
C, 00, 00, 0, 0, 0, 0,  0.0307374, -0.2277737, -0.2168141, -0.2406316, -0.2975045, -0.2484961, -0.3111000, -1.0282356
C, 00, 00, 0, 0, 0, 0,  0.0308228, -0.2330284, -0.2172041, -0.2409625, -0.2978139, -0.2487831, -0.3114624, -1.0287019
C, 00, 00, 0, 0, 0, 0,  0.0309157, -0.2303667, -0.2168870, -0.2407418, -0.2975111, -0.2484331, -0.3110567, -1.0282117
C, 00, 00, 0, 0, 0, 0,  0.0308857, -0.2237230, -0.2162476, -0.2401882, -0.2969156, -0.2478147, -0.3103366, -1.0273510
C, 00, 00, 0, 0, 0, 0,  0.0307550, -0.2225037, -0.2162633, -0.2401934, -0.2969437, -0.2478700, -0.3103848, -1.0274707
C, 00, 00, 0, 0, 0, 0,  0.0306816, -0.2286668, -0.2168746, -0.2407332, -0.2975211, -0.2484780, -0.3110991, -1.0283967
C, 00, 00, 0, 0, 0, 0,  0.0307493, -0.2340527, -0.2173167, -0.2411619, -0.2979098, -0.2488799, -0.3115569, -1.0289856
C, 00, 00, 0, 0, 0, 0,  0.0307531, -0.2315598, -0.2169700, -0.2408905, -0.2975612, -0.2484999, -0.3111201, -1.0284478
C, 00, 00, 0, 0, 0, 0,  0.0306745, -0.2249208, -0.2164121, -0.2404304, -0.2970610, -0.2479773, -0.3104959, -1.0277225
C, 00, 00, 0, 0, 0, 0,  0.0305252, -0.2234826, -0.2163525, -0.2403479, -0.2970014, -0.2479158, -0.3104482, -1.0277396
C, 00, 00, 0, 0, 0, 0,  0.0305529, -0.2294941, -0.2169605, -0.2408777, -0.2975612, -0.2484956, -0.3111401, -1.0286747
C, 00, 00, 0, 0, 0, 0,  0.0308023, -0.2349887, -0.2173744, -0.2412610, -0.2979284, -0.2488475, -0.3115955, -1.0292617
C, 00, 00, 0, 0, 0, 0,  0.0307064, -0.2326904, -0.2171126, -0.2410865, -0.2976885, -0.2485647, -0.3112774, -1.0288864
C, 00, 00, 0, 0, 0, 0,  0.0304737, -0.2259870, -0.2164383, -0.2405029, -0.2970600, -0.2478843, -0.3105197, -1.0279876
C, 00, 00, 0, 0, 0, 0,  0.0304933, -0.2243376, -0.2164183, -0.2404766, -0.2970667, -0.2478962, -0.3105379, -1.0280615
C, 00, 00, 0, 0, 0, 0,  0.0306444, -0.2302108, -0.2169776, -0.2409435, -0.2975736, -0.2484222, -0.3111687, -1.0288917
C, 00, 00, 0, 0, 0, 0,  0.0305328, -0.2358251, -0.2174974, -0.2414260, -0.2980342, -0.2488809, -0.3117085, -1.0295903
C, 00, 00, 0, 0, 0, 0,  0.0305429, -0.2336531, -0.2171746, -0.2411537, -0.2977052, -0.2484985, -0.3112741, -1.0290571
C, 00, 00, 0, 0, 0, 0,  0.0306044, -0.2269421, -0.2165966, -0.2406864, -0.2971945, -0.2479525, -0.3106280, -1.0282861
C, 00, 00, 0, 0, 0, 0,  0.0306511, -0.2250605, -0.2164741, -0.2405577, -0.2970987, -0.2478500, -0.3105307, -1.0282165
C, 00, 00, 0, 0, 0, 0,  0.0305810, -0.2307864, -0.2170639, -0.2410536, -0.2976356, -0.2484155, -0.3111883, -1.0290896
C, 00, 00, 0, 0, 0, 0,  0.0304079, -0.2364660, -0.2175160, -0.2414613, -0.2980142, -0.2487879, -0.3116479, -1.0296871
C, 00, 00, 0, 0, 0, 0,  0.0304117, -0.2344938, -0.2172942, -0.2413230, -0.2978101, -0.2485404, -0.3113528, -1.0293471
C, 00, 00, 0, 0, 0, 0,  0.0301619, -0.2277217, -0.2166214, -0.2407394, -0.2971774, -0.2478614, -0.3105851, -1.0284244
C, 00, 00, 0, 0, 0, 0,  0.0302067, -0.2256298, -0.2165671, -0.2406774, -0.2971344, -0.2478409, -0.3105564, -1.0284482
C, 00, 00, 0, 0, 0, 0,  0.0303893, -0.2312112, -0.2171045, -0.2411228, -0.2976194, -0.2483578, -0.3111606, -1.0292512
C, 00, 00, 0, 0, 0, 0,  0.0303788, -0.2369905, -0.2176204, -0.2416001, -0.2980700, -0.2488427, -0.3116961, -1.0299369
C, 00, 00, 0, 0, 0, 0,  0.0302663, -0.2351575, -0.2173305, -0.2413736, -0.2977691, -0.2485137, -0.3113213, -1.0294687
C, 00, 00, 0, 0, 0, 0,  0.0302725, -0.2283821, -0.2167244, -0.2408643, -0.2972083, -0.2479158, -0.3106299, -1.0286461
C, 00, 00, 0, 0, 0, 0,  0.0301909, -0.2260652, -0.2165919, -0.2407270, -0.2970810, -0.2477856, -0.3105078, -1.0285269
C, 00, 00, 0, 0, 0, 0,  0.0301385, -0.2315531, -0.2172385, -0.2412954, -0.2976861, -0.2484322, -0.3112541, -1.0294882
C, 00, 00, 0, 0, 0, 0,  0.0303798, -0.2374444, -0.2177153, -0.2417202, -0.2981096, -0.2488661, -0.3117705, -1.0301424
C, 00, 00, 0, 0, 0, 0,  0.0301204, -0.2358241, -0.2174869, -0.2415686, -0.2978979, -0.2486329, -0.3114782, -1.0297977
C, 00, 00, 0, 0, 0, 0,  0.0299616, -0.2290426, -0.2168026, -0.2409706, -0.2972646, -0.2479477, -0.3107081, -1.0288760
C, 00, 00, 0, 0, 0, 0,  0.0301476, -0.2265029, -0.2166400, -0.2408161, -0.2971425, -0.2478295, -0.3105722, -1.0287677
C, 00, 00, 0, 0, 0, 0,  0.0302305, -0.2318378, -0.2171850, -0.2412753, -0.2976594, -0.2483697, -0.3112135, -1.0296007
C, 00, 00, 0, 0, 0, 0,  0.0302062, -0.2378159, -0.2176934, -0.2417617, -0.2981382, -0.2488437, -0.3117590, -1.0303055
C, 00, 00, 0, 0, 0, 0,  0.0299172, -0.2363696, -0.2174554, -0.2415858, -0.2978974, -0.2485900, -0.3114577, -1.0299403
C, 00, 00, 0, 0, 0, 0,  0.0298982, -0.2296109, -0.2168379, -0.2410736, -0.2973400, -0.2480240, -0.3107796, -1.0291311
C, 00, 00, 0, 0, 0, 0,  0.0300727, -0.2268811, -0.2166443, -0.2408848, -0.2971626, -0.2478438, -0.3105913, -1.0289418
C, 00, 00, 0, 0, 0, 0,  0.0301423, -0.2320400, -0.2171903, -0.2413645, -0.2976737, -0.2483769, -0.3112264, -1.0297810
C, 00, 00, 0, 0, 0, 0,  0.0300841, -0.2381335, -0.2177172, -0.2418256, -0.2981325, -0.2488523, -0.3117857, -1.0304996
C, 00, 00, 0, 0, 0, 0,  0.0299969, -0.2368818, -0.2175293, -0.2417164, -0.2979513, -0.2486620, -0.3115378, -1.0302197
C, 00, 00, 0, 0, 0, 0,  0.0299282, -0.2300897, -0.2168260, -0.2411170, -0.2972942, -0.2479611, -0.3107415, -1.0292693
C, 00, 00, 0, 0, 0, 0,  0.0300078, -0.2271872, -0.2166806, -0.2410026, -0.2971859, -0.2478524, -0.3106208, -1.0291797
C, 00, 00, 0, 0, 0, 0,  0.0300722, -0.2321954, -0.2171607, -0.2413960, -0.2976365, -0.2483030, -0.3111740, -1.0299164
C, 00, 00, 0, 0, 0, 0,  0.0298677, -0.2383547, -0.2177148, -0.2418957, -0.2981482, -0.2488199, -0.3117791, -1.0306870
C, 00, 00, 0, 0, 0, 0,  0.0299263, -0.2372885, -0.2175422, -0.2417684, -0.2979579, -0.2486048, -0.3115459, -1.0303828
C, 00, 00, 0, 0, 0, 0,  0.0300484, -0.2305575, -0.2169376, -0.2412658, -0.2974086, -0.2480288, -0.3108678, -1.0295488
C, 00, 00, 0, 0, 0, 0,  0.0299349, -0.2274509, -0.2166868, -0.2410178, -0.2971950, -0.2478242, -0.3106275, -1.0293056
C, 00, 00, 0, 0, 0, 0,  0.0299835, -0.2323060, -0.2172051, -0.2414503, -0.2976842, -0.2483578, -0.3112317, -1.0301214
C, 00, 00, 0, 0, 0, 0,  0.0301213, -0.2385373, -0.2177353, -0.2419024, -0.2981425, -0.2488404, -0.3117881, -1.0308510
C, 00, 00, 0, 0, 0, 0,  0.0298028, -0.2376776, -0.2176223, -0.2418347, -0.2980299, -0.2487130, -0.3116160, -1.0306560
C, 00, 00, 0, 0, 0, 0,  0.0296226, -0.2309480, -0.2169447, -0.2412567, -0.2974058, -0.2480421, -0.3108540, -1.0297290
C, 00, 00, 0, 0, 0, 0,  0.0297728, -0.2276397, -0.2167211, -0.2410469, -0.2972103, -0.2478404, -0.3106208, -1.0295059
C, 00, 00, 0, 0, 0, 0,  0.0296726, -0.2323327, -0.2172141, -0.2414375, -0.2976547, -0.2483015, -0.3111744, -1.0302507
C, 00, 00, 0, 0, 0, 0,  0.0296168, -0.2386504, -0.2177964, -0.2419658, -0.2981811, -0.2488523, -0.3117986, -1.0310813
C, 00, 00, 0, 0, 0, 0,  0.0295825, -0.2379489, -0.2176123, -0.2418251, -0.2979808, -0.2486310, -0.3115397, -1.0307833
C, 00, 00, 0, 0, 0, 0,  0.0297346, -0.2312551, -0.2169910, -0.2413221, -0.2974162, -0.2480488, -0.3108445, -1.0299593
C, 00, 00, 0, 0, 0, 0,  0.0297732, -0.2277875, -0.2167521, -0.2410970, -0.2972112, -0.2478442, -0.3106246, -1.0297252
C, 00, 00, 0, 0, 0, 0,  0.0298352, -0.2323633, -0.2172766, -0.2415581, -0.2977143, -0.2483945, -0.3112455, -1.0305663
C, 00, 00, 0, 0, 0, 0,  0.0299015, -0.2387367, -0.2177711, -0.2419944, -0.2981577, -0.2488437, -0.3117767, -1.0312663
C, 00, 00, 0, 0, 0, 0,  0.0297947, -0.2382298, -0.2176376, -0.2419095, -0.2980252, -0.2486959, -0.3115855, -1.0310589
C, 00, 00, 0, 0, 0, 0,  0.0295644, -0.2315684, -0.2169676, -0.2413445, -0.2974043, -0.2480264, -0.3108282, -1.0301610
C, 00, 00, 0, 0, 0, 0,  0.0295358, -0.2279320, -0.2167650, -0.2411719, -0.2972398, -0.2478681, -0.3106480, -1.0299956
C, 00, 00, 0, 0, 0, 0,  0.0296865, -0.2323141, -0.2172041, -0.2415176, -0.2976418, -0.2482972, -0.3111573, -1.0306975
C, 00, 00, 0, 0, 0, 0,  0.0297337, -0.2387944, -0.2178073, -0.2420845, -0.2982102, -0.2488933, -0.3118430, -1.0315977
C, 00, 00, 0, 0, 0, 0,  0.0296540, -0.2385092, -0.2176533, -0.2419887, -0.2980686, -0.2487049, -0.3116436, -1.0313755
C, 00, 00, 0, 0, 0, 0,  0.0296235, -0.2319131, -0.2170296, -0.2414866, -0.2975088, -0.2481194, -0.3109389, -1.0305496
C, 00, 00, 0, 0, 0, 0,  0.0295281, -0.2280836, -0.2167268, -0.2412076, -0.2972451, -0.2478409, -0.3106327, -1.0302249
C, 00, 00, 0, 0, 0, 0,  0.0296264, -0.2323270, -0.2172165, -0.2416239, -0.2977057, -0.2483354, -0.3112078, -1.0310146
C, 00, 00, 0, 0, 0, 0,  0.0295434, -0.2388354, -0.2177472, -0.2420502, -0.2981654, -0.2487994, -0.3117609, -1.0317532
C, 00, 00, 0, 0, 0, 0,  0.0295110, -0.2387343, -0.2176857, -0.2420135, -0.2980910, -0.2486959, -0.3116293, -1.0316197
C, 00, 00, 0, 0, 0, 0,  0.0293326, -0.2321844, -0.2170644, -0.2414785, -0.2975073, -0.2480688, -0.3109217, -1.0307580
C, 00, 00, 0, 0, 0, 0,  0.0294066, -0.2282019, -0.2167878, -0.2412482, -0.2972818, -0.2478404, -0.3106652, -1.0304800
C, 00, 00, 0, 0, 0, 0,  0.0295405, -0.2322569, -0.2172022, -0.2415643, -0.2976489, -0.2482462, -0.3111463, -1.0311276
C, 00, 00, 0, 0, 0, 0,  0.0295773, -0.2388645, -0.2178402, -0.2421379, -0.2982345, -0.2488742, -0.3118601, -1.0320483
C, 00, 00, 0, 0, 0, 0,  0.0294337, -0.2389708, -0.2177105, -0.2420540, -0.2981158, -0.2487192, -0.3116956, -1.0318338
C, 00, 00, 0, 0, 0, 0,  0.0292602, -0.2324605, -0.2170534, -0.2415123, -0.2975259, -0.2480917, -0.3109570, -1.0309368
C, 00, 00, 0, 0, 0, 0,  0.0290303, -0.2282763, -0.2167011, -0.2411933, -0.2972226, -0.2477775, -0.3106032, -1.0305420
C, 00, 00, 0, 0, 0, 0,  0.0292878, -0.2322002, -0.2171994, -0.2416377, -0.2977114, -0.2483096, -0.3112088, -1.0313498
C, 00, 00, 0, 0, 0, 0,  0.0293479, -0.2388506, -0.2177792, -0.2421508, -0.2982211, -0.2488480, -0.3118472, -1.0321666
C, 00, 00, 0, 0, 0, 0,  0.0296822, -0.2391606, -0.2177315, -0.2421484, -0.2981730, -0.2487679, -0.3117414, -1.0320817
C, 00, 00, 0, 0, 0, 0,  0.0297298, -0.2326994, -0.2170429, -0.2415424, -0.2975211, -0.2480588, -0.3109408, -1.0311180
C, 00, 00, 0, 0, 0, 0,  0.0292449, -0.2283654, -0.2167235, -0.2412644, -0.2972484, -0.2477985, -0.3106361, -1.0307881
C, 00, 00, 0, 0, 0, 0,  0.0292244, -0.2321077, -0.2171593, -0.2416172, -0.2976499, -0.2482419, -0.3111601, -1.0314962
C, 00, 00, 0, 0, 0, 0,  0.0292544, -0.2388044, -0.2177849, -0.2421856, -0.2982350, -0.2488489, -0.3118601, -1.0323974
C, 00, 00, 0, 0, 0, 0,  0.0292892, -0.2392760, -0.2176662, -0.2421108, -0.2981062, -0.2486863, -0.3116794, -1.0321971
C, 00, 00, 0, 0, 0, 0,  0.0290074, -0.2329154, -0.2170520, -0.2416139, -0.2975340, -0.2480879, -0.3109737, -1.0313541
C, 00, 00, 0, 0, 0, 0,  0.0292668, -0.2284107, -0.2166815, -0.2412682, -0.2971859, -0.2477379, -0.3105812, -1.0309073
C, 00, 00, 0, 0, 0, 0,  0.0294695, -0.2319689, -0.2171350, -0.2416477, -0.2976146, -0.2482019, -0.3111191, -1.0316345
C, 00, 00, 0, 0, 0, 0,  0.0296135, -0.2387033, -0.2177491, -0.2421789, -0.2981577, -0.2487593, -0.3117977, -1.0325047
C, 00, 00, 0, 0, 0, 0,  0.0295749, -0.2393947, -0.2177243, -0.2422042, -0.2981143, -0.2487073, -0.3117319, -1.0324436
C, 00, 00, 0, 0, 0, 0,  0.0294385, -0.2331229, -0.2171092, -0.2416635, -0.2975159, -0.2480851, -0.3110166, -1.0315853
C, 00, 00, 0, 0, 0, 0,  0.0294356, -0.2285071, -0.2167840, -0.2413779, -0.2972322, -0.2478075, -0.3106804, -1.0312258
C, 00, 00, 0, 0, 0, 0,  0.0293050, -0.2318831, -0.2171626, -0.2416616, -0.2975731, -0.2481737, -0.3111258, -1.0318323
C, 00, 00, 0, 0, 0, 0,  0.0292945, -0.2386613, -0.2178097, -0.2422338, -0.2981506, -0.2487917, -0.3118277, -1.0327498
C, 00, 00, 0, 0, 0, 0,  0.0292687, -0.2395711, -0.2177725, -0.2422104, -0.2980905, -0.2487111, -0.3117428, -1.0326444
C, 00, 00, 0, 0, 0, 0,  0.0293055, -0.2333780, -0.2171660, -0.2416978, -0.2975278, -0.2481180, -0.3110509, -1.0318147
C, 00, 00, 0, 0, 0, 0,  0.0293675, -0.2285533, -0.2167201, -0.2412577, -0.2971197, -0.2476955, -0.3105731, -1.0312711
C, 00, 00, 0, 0, 0, 0,  0.0294848, -0.2317395, -0.2171073, -0.2415853, -0.2975107, -0.2481108, -0.3110643, -1.0319301
C, 00, 00, 0, 0, 0, 0,  0.0293965, -0.2385230, -0.2177100, -0.2420969, -0.2980461, -0.2486639, -0.3117242, -1.0327765
C, 00, 00, 0, 0, 0, 0,  0.0292630, -0.2396236, -0.2177611, -0.2421723, -0.2980800, -0.2486763, -0.3117304, -1.0328018
C, 00, 00, 0, 0, 0, 0,  0.0292468, -0.2335120, -0.2171498, -0.2416649, -0.2975107, -0.2480622, -0.3110276, -1.0319458
C, 00, 00, 0, 0, 0, 0,  0.0291510, -0.2285657, -0.2167683, -0.2413197, -0.2971654, -0.2477231, -0.3106132, -1.0314952
C, 00, 00, 0, 0, 0, 0,  0.0290504, -0.2315817, -0.2171421, -0.2416053, -0.2974944, -0.2480955, -0.3110471, -1.0320855
C, 00, 00, 0, 0, 0, 0,  0.0291796, -0.2383967, -0.2177520, -0.2421527, -0.2980552, -0.2487016, -0.3117409, -1.0329829
C, 00, 00, 0, 0, 0, 0,  0.0293241, -0.2396794, -0.2177391, -0.2421661, -0.2980147, -0.2486468, -0.3116875, -1.0329305
C, 00, 00, 0, 0, 0, 0,  0.0291810, -0.2336641, -0.2171617, -0.2417031, -0.2974759, -0.2480932, -0.3110147, -1.0321223
C, 00, 00, 0, 0, 0, 0,  0.0291290, -0.2285676, -0.2167244, -0.2413049, -0.2970815, -0.2476940, -0.3105598, -1.0315892
C, 00, 00, 0, 0, 0, 0,  0.0291476, -0.2314158, -0.2171335, -0.2416396, -0.2974892, -0.2481408, -0.3110762, -1.0322725
C, 00, 00, 0, 0, 0, 0,  0.0292387, -0.2382694, -0.2177410, -0.2421432, -0.2980404, -0.2487188, -0.3117533, -1.0331398
C, 00, 00, 0, 0, 0, 0,  0.0290914, -0.2397604, -0.2177782, -0.2422066, -0.2980647, -0.2487336, -0.3117600, -1.0331513
C, 00, 00, 0, 0, 0, 0,  0.0291228, -0.2338581, -0.2171755, -0.2416945, -0.2975006, -0.2481151, -0.3110652, -1.0322958
C, 00, 00, 0, 0, 0, 0,  0.0292168, -0.2286525, -0.2167878, -0.2413497, -0.2971530, -0.2477823, -0.3106637, -1.0318409
C, 00, 00, 0, 0, 0, 0,  0.0292854, -0.2312904, -0.2171078, -0.2415777, -0.2974248, -0.2481108, -0.3110452, -1.0323688
C, 00, 00, 0, 0, 0, 0,  0.0292754, -0.2381592, -0.2177649, -0.2421513, -0.2980228, -0.2487479, -0.3117805, -1.0333124
C, 00, 00, 0, 0, 0, 0,  0.0288935, -0.2398334, -0.2177649, -0.2421699, -0.2980061, -0.2487021, -0.3117509, -1.0332748
C, 00, 00, 0, 0, 0, 0,  0.0289907, -0.2340446, -0.2172041, -0.2417321, -0.2975011, -0.2481613, -0.3111225, -1.0325166
C, 00, 00, 0, 0, 0, 0,  0.0291300, -0.2286682, -0.2167144, -0.2412887, -0.2970515, -0.2476869, -0.3105860, -1.0318943
C, 00, 00, 0, 0, 0, 0,  0.0290217, -0.2310987, -0.2170711, -0.2415772, -0.2973867, -0.2480564, -0.3110080, -1.0324680
C, 00, 00, 0, 0, 0, 0,  0.0290160, -0.2379737, -0.2177258, -0.2421294, -0.2979708, -0.2486644, -0.3117381, -1.0333844
C, 00, 00, 0, 0, 0, 0,  0.0291414, -0.2398544, -0.2178097, -0.2422257, -0.2980452, -0.2487145, -0.3117872, -1.0334712
C, 00, 00, 0, 0, 0, 0,  0.0290599, -0.2341337, -0.2171664, -0.2416697, -0.2974649, -0.2480760, -0.3110614, -1.0325943
C, 00, 00, 0, 0, 0, 0,  0.0288734, -0.2286454, -0.2167306, -0.2412820, -0.2970896, -0.2476969, -0.3106289, -1.0320927
C, 00, 00, 0, 0, 0, 0,  0.0288601, -0.2308979, -0.2170444, -0.2415190, -0.2973843, -0.2480197, -0.3110204, -1.0326201
C, 00, 00, 0, 0, 0, 0,  0.0291748, -0.2377897, -0.2177243, -0.2421255, -0.2980218, -0.2486854, -0.3117705, -1.0335990
C, 00, 00, 0, 0, 0, 0,  0.0293579, -0.2398706, -0.2177997, -0.2422095, -0.2980690, -0.2486968, -0.3118048, -1.0336486
C, 00, 00, 0, 0, 0, 0,  0.0290971, -0.2342668, -0.2172146, -0.2417360, -0.2975211, -0.2481270, -0.3111182, -1.0328161
C, 00, 00, 0, 0, 0, 0,  0.0290022, -0.2286277, -0.2167068, -0.2412720, -0.2970510, -0.2476487, -0.3105817, -1.0321771
C, 00, 00, 0, 0, 0, 0,  0.0292125, -0.2306652, -0.2170148, -0.2415424, -0.2973643, -0.2479859, -0.3109765, -1.0327164
C, 00, 00, 0, 0, 0, 0,  0.0292163, -0.2375131, -0.2176361, -0.2420888, -0.2979417, -0.2485681, -0.3116761, -1.0336100
C, 00, 00, 0, 0, 0, 0,  0.0289516, -0.2398091, -0.2178073, -0.2422881, -0.2981167, -0.2487340, -0.3118477, -1.0338351
C, 00, 00, 0, 0, 0, 0,  0.0289240, -0.2343464, -0.2172213, -0.2417798, -0.2975684, -0.2481389, -0.3111658, -1.0329982
C, 00, 00, 0, 0, 0, 0,  0.0289640, -0.2286125, -0.2167630, -0.2413769, -0.2971654, -0.2477160, -0.3106704, -1.0324355
C, 00, 00, 0, 0, 0, 0,  0.0290303, -0.2304192, -0.2169724, -0.2415095, -0.2973519, -0.2479163, -0.3109284, -1.0328060
C, 00, 00, 0, 0, 0, 0,  0.0290494, -0.2372656, -0.2176471, -0.2420922, -0.2979699, -0.2485643, -0.3116842, -1.0337774
C, 00, 00, 0, 0, 0, 0,  0.0289741, -0.2397261, -0.2177840, -0.2422223, -0.2980843, -0.2486472, -0.3118101, -1.0339314
C, 00, 00, 0, 0, 0, 0,  0.0288754, -0.2343688, -0.2172427, -0.2417689, -0.2975731, -0.2480989, -0.3111658, -1.0331489
C, 00, 00, 0, 0, 0, 0,  0.0288863, -0.2285214, -0.2167416, -0.2413163, -0.2971130, -0.2476178, -0.3106270, -1.0325176
C, 00, 00, 0, 0, 0, 0,  0.0289011, -0.2301569, -0.2169867, -0.2415104, -0.2973614, -0.2479005, -0.3109432, -1.0329586
C, 00, 00, 0, 0, 0, 0,  0.0289712, -0.2369752, -0.2176123, -0.2420216, -0.2979193, -0.2484908, -0.3116374, -1.0338527
C, 00, 00, 0, 0, 0, 0,  0.0289726, -0.2396341, -0.2178302, -0.2422324, -0.2981172, -0.2486773, -0.3118444, -1.0341159
C, 00, 00, 0, 0, 0, 0,  0.0290241, -0.2343931, -0.2172346, -0.2417217, -0.2975436, -0.2480560, -0.3111444, -1.0332423
C, 00, 00, 0, 0, 0, 0,  0.0291133, -0.2284160, -0.2167444, -0.2412978, -0.2971063, -0.2476197, -0.3106146, -1.0326201
C, 00, 00, 0, 0, 0, 0,  0.0290279, -0.2298422, -0.2169543, -0.2414532, -0.2973118, -0.2478462, -0.3108931, -1.0330011
C, 00, 00, 0, 0, 0, 0,  0.0288992, -0.2366729, -0.2176547, -0.2420779, -0.2979665, -0.2485318, -0.3116899, -1.0340196
C, 00, 00, 0, 0, 0, 0,  0.0288534, -0.2394829, -0.2177792, -0.2421999, -0.2980552, -0.2486058, -0.3117762, -1.0341512
C, 00, 00, 0, 0, 0, 0,  0.0289364, -0.2343803, -0.2172489, -0.2417689, -0.2975679, -0.2480922, -0.3111687, -1.0334278
C, 00, 00, 0, 0, 0, 0,  0.0288935, -0.2283106, -0.2167025, -0.2412720, -0.2970777, -0.2475777, -0.3105917, -1.0327588
C, 00, 00, 0, 0, 0, 0,  0.0288572, -0.2295647, -0.2169733, -0.2414933, -0.2973566, -0.2478876, -0.3109393, -1.0332500
C, 00, 00, 0, 0, 0, 0,  0.0288820, -0.2363386, -0.2175889, -0.2419858, -0.2978964, -0.2484508, -0.3116088, -1.0341107
C, 00, 00, 0, 0, 0, 0,  0.0287490, -0.2393513, -0.2178154, -0.2422047, -0.2980957, -0.2486358, -0.3118196, -1.0343944
C, 00, 00, 0, 0, 0, 0,  0.0286608, -0.2344098, -0.2172852, -0.2417522, -0.2975946, -0.2480951, -0.3111949, -1.0336415
C, 00, 00, 0, 0, 0, 0,  0.0284977, -0.2282453, -0.2167545, -0.2412944, -0.2971239, -0.2476039, -0.3106246, -1.0329777
C, 00, 00, 0, 0, 0, 0,  0.0284247, -0.2292924, -0.2169566, -0.2414327, -0.2973171, -0.2478175, -0.3108859, -1.0333525
C, 00, 00, 0, 0, 0, 0,  0.0285945, -0.2360759, -0.2176481, -0.2420154, -0.2979641, -0.2484999, -0.3116651, -1.0343553
C, 00, 00, 0, 0, 0, 0,  0.0286226, -0.2392717, -0.2178207, -0.2421799, -0.2981124, -0.2486329, -0.3118239, -1.0345513
C, 00, 00, 0, 0, 0, 0,  0.0284967, -0.2344694, -0.2173004, -0.2417593, -0.2976294, -0.2481094, -0.3112107, -1.0337979
C, 00, 00, 0, 0, 0, 0,  0.0285292, -0.2282262, -0.2167521, -0.2412653, -0.2971359, -0.2475992, -0.3106227, -1.0330921
C, 00, 00, 0, 0, 0, 0,  0.0285463, -0.2290793, -0.2169662, -0.2414236, -0.2973533, -0.2478619, -0.3109022, -1.0334951
C, 00, 00, 0, 0, 0, 0,  0.0287337, -0.2358098, -0.2175803, -0.2419415, -0.2979112, -0.2484460, -0.3115969, -1.0343896
C, 00, 00, 0, 0, 0, 0,  0.0289106, -0.2391715, -0.2177997, -0.2421770, -0.2981115, -0.2486396, -0.3118139, -1.0346681
C, 00, 00, 0, 0, 0, 0,  0.0287614, -0.2345066, -0.2172542, -0.2417217, -0.2975903, -0.2480970, -0.3111902, -1.0338813
C, 00, 00, 0, 0, 0, 0,  0.0285115, -0.2281761, -0.2167287, -0.2412663, -0.2971106, -0.2476325, -0.3106208, -1.0332152
C, 00, 00, 0, 0, 0, 0,  0.0285168, -0.2287960, -0.2168751, -0.2413602, -0.2972398, -0.2477861, -0.3108163, -1.0334894
C, 00, 00, 0, 0, 0, 0,  0.0286751, -0.2355047, -0.2175865, -0.2419772, -0.2978993, -0.2484947, -0.3116231, -1.0345045
C, 00, 00, 0, 0, 0, 0,  0.0285735, -0.2390490, -0.2177921, -0.2421422, -0.2980609, -0.2486506, -0.3118091, -1.0347306
C, 00, 00, 0, 0, 0, 0,  0.0283809, -0.2345758, -0.2173434, -0.2417856, -0.2976585, -0.2482257, -0.3112941, -1.0341102
C, 00, 00, 0, 0, 0, 0,  0.0283456, -0.2281781, -0.2167411, -0.2412458, -0.2971230, -0.2476635, -0.3106408, -1.0333439
C, 00, 00, 0, 0, 0, 0,  0.0285392, -0.2286039, -0.2168699, -0.2413397, -0.2972627, -0.2478299, -0.3108316, -1.0336233
C, 00, 00, 0, 0, 0, 0,  0.0286870, -0.2352538, -0.2175145, -0.2418838, -0.2978540, -0.2484713, -0.3115611, -1.0345599
C, 00, 00, 0, 0, 0, 0,  0.0284820, -0.2389975, -0.2178116, -0.2421923, -0.2981305, -0.2487603, -0.3118701, -1.0349661
C, 00, 00, 0, 0, 0, 0,  0.0284123, -0.2346640, -0.2172985, -0.2417803, -0.2976518, -0.2482353, -0.3112746, -1.0342308
C, 00, 00, 0, 0, 0, 0,  0.0284195, -0.2281966, -0.2167506, -0.2412997, -0.2971592, -0.2477293, -0.3106723, -1.0335265
C, 00, 00, 0, 0, 0, 0,  0.0285654, -0.2284341, -0.2168331, -0.2413278, -0.2972422, -0.2478428, -0.3108049, -1.0337306
C, 00, 00, 0, 0, 0, 0,  0.0285192, -0.2350111, -0.2174444, -0.2418680, -0.2978340, -0.2484660, -0.3115325, -1.0346581
C, 00, 00, 0, 0, 0, 0,  0.0284033, -0.2389021, -0.2176943, -0.2421074, -0.2980514, -0.2486711, -0.3117938, -1.0349718
C, 00, 00, 0, 0, 0, 0,  0.0283885, -0.2347474, -0.2172952, -0.2418084, -0.2976861, -0.2482777, -0.3113280, -1.0343839
C, 00, 00, 0, 0, 0, 0,  0.0284066, -0.2281990, -0.2166944, -0.2412610, -0.2971220, -0.2476931, -0.3106552, -1.0335757
C, 00, 00, 0, 0, 0, 0,  0.0284734, -0.2282257, -0.2167831, -0.2413197, -0.2972360, -0.2478190, -0.3107982, -1.0338107
C, 00, 00, 0, 0, 0, 0,  0.0285926, -0.2347679, -0.2174111, -0.2418485, -0.2978287, -0.2484317, -0.3115235, -1.0347377
C, 00, 00, 0, 0, 0, 0,  0.0285034, -0.2388196, -0.2177100, -0.2421384, -0.2980919, -0.2487173, -0.3118225, -1.0351373
C, 00, 00, 0, 0, 0, 0,  0.0283999, -0.2347784, -0.2172137, -0.2417193, -0.2976241, -0.2482243, -0.3112421, -1.0344349
C, 00, 00, 0, 0, 0, 0,  0.0282941, -0.2281723, -0.2166510, -0.2412486, -0.2971382, -0.2477055, -0.3106394, -1.0337149
C, 00, 00, 0, 0, 0, 0,  0.0282998, -0.2280150, -0.2167521, -0.2412987, -0.2972360, -0.2478209, -0.3107872, -1.0339199
C, 00, 00, 0, 0, 0, 0,  0.0285344, -0.2345033, -0.2174292, -0.2418890, -0.2978645, -0.2484927, -0.3115602, -1.0348975
C, 00, 00, 0, 0, 0, 0,  0.0285907, -0.2387338, -0.2177286, -0.2421670, -0.2981191, -0.2487331, -0.3118668, -1.0352742
C, 00, 00, 0, 0, 0, 0,  0.0283661, -0.2348976, -0.2173205, -0.2418499, -0.2977376, -0.2483125, -0.3113795, -1.0346748
C, 00, 00, 0, 0, 0, 0,  0.0283151, -0.2282281, -0.2167073, -0.2413059, -0.2971554, -0.2476998, -0.3106766, -1.0338312
C, 00, 00, 0, 0, 0, 0,  0.0283532, -0.2278395, -0.2167821, -0.2413340, -0.2972293, -0.2477966, -0.3107844, -1.0340148
C, 00, 00, 0, 0, 0, 0,  0.0285010, -0.2342434, -0.2174025, -0.2418404, -0.2978063, -0.2484045, -0.3115030, -1.0349399
C, 00, 00, 0, 0, 0, 0,  0.0285053, -0.2386251, -0.2177401, -0.2421513, -0.2981053, -0.2487078, -0.3118368, -1.0353791
C, 00, 00, 0, 0, 0, 0,  0.0282998, -0.2349339, -0.2172766, -0.2417622, -0.2976599, -0.2482362, -0.3112789, -1.0347196
C, 00, 00, 0, 0, 0, 0,  0.0281997, -0.2282343, -0.2167030, -0.2412782, -0.2971678, -0.2477436, -0.3106795, -1.0340191
C, 00, 00, 0, 0, 0, 0,  0.0283117, -0.2276454, -0.2166920, -0.2412167, -0.2971726, -0.2477627, -0.3107210, -1.0341126
C, 00, 00, 0, 0, 0, 0,  0.0284486, -0.2339945, -0.2173863, -0.2418123, -0.2978130, -0.2484470, -0.3115120, -1.0351306
C, 00, 00, 0, 0, 0, 0,  0.0284357, -0.2385454, -0.2177229, -0.2421160, -0.2980981, -0.2487331, -0.3118501, -1.0355502
C, 00, 00, 0, 0, 0, 0,  0.0283308, -0.2350402, -0.2173052, -0.2417813, -0.2976995, -0.2483068, -0.3113456, -1.0349237
C, 00, 00, 0, 0, 0, 0,  0.0282469, -0.2282639, -0.2166615, -0.2412010, -0.2970915, -0.2476750, -0.3106265, -1.0340520
C, 00, 00, 0, 0, 0, 0,  0.0283728, -0.2274876, -0.2167135, -0.2412329, -0.2971688, -0.2477737, -0.3107224, -1.0342294
C, 00, 00, 0, 0, 0, 0,  0.0283184, -0.2337327, -0.2173062, -0.2417174, -0.2977214, -0.2483511, -0.3114076, -1.0351144
C, 00, 00, 0, 0, 0, 0,  0.0284371, -0.2384310, -0.2177081, -0.2420864, -0.2980800, -0.2487154, -0.3118344, -1.0356327
C, 00, 00, 0, 0, 0, 0,  0.0284553, -0.2350998, -0.2172942, -0.2417536, -0.2976823, -0.2482806, -0.3113408, -1.0350047
C, 00, 00, 0, 0, 0, 0,  0.0282636, -0.2283368, -0.2167263, -0.2412873, -0.2971802, -0.2477713, -0.3107200, -1.0342671
C, 00, 00, 0, 0, 0, 0,  0.0283389, -0.2273569, -0.2166863, -0.2412105, -0.2971487, -0.2477532, -0.3107124, -1.0342933
C, 00, 00, 0, 0, 0, 0,  0.0284796, -0.2335382, -0.2173591, -0.2417827, -0.2977763, -0.2484184, -0.3114906, -1.0352703
C, 00, 00, 0, 0, 0, 0,  0.0283461, -0.2383776, -0.2176948, -0.2420721, -0.2980657, -0.2486964, -0.3118363, -1.0356947
C, 00, 00, 0, 0, 0, 0,  0.0282683, -0.2352577, -0.2173572, -0.2418213, -0.2977710, -0.2483616, -0.3114396, -1.0352093
C, 00, 00, 0, 0, 0, 0,  0.0281830, -0.2284513, -0.2167044, -0.2412358, -0.2971783, -0.2477508, -0.3107367, -1.0343572
C, 00, 00, 0, 0, 0, 0,  0.0281925, -0.2272897, -0.2166977, -0.2412110, -0.2972017, -0.2477937, -0.3107853, -1.0344597
C, 00, 00, 0, 0, 0, 0,  0.0283399, -0.2333494, -0.2172580, -0.2416811, -0.2977100, -0.2483125, -0.3114138, -1.0352818
C, 00, 00, 0, 0, 0, 0,  0.0283241, -0.2383552, -0.2177344, -0.2421170, -0.2981301, -0.2487426, -0.3119030, -1.0359098
C, 00, 00, 0, 0, 0, 0,  0.0281329, -0.2354012, -0.2173572, -0.2417994, -0.2977453, -0.2483330, -0.3114362, -1.0353409
C, 00, 00, 0, 0, 0, 0,  0.0280895, -0.2285486, -0.2167392, -0.2412615, -0.2971683, -0.2477441, -0.3107243, -1.0345012
C, 00, 00, 0, 0, 0, 0,  0.0281925, -0.2271791, -0.2166882, -0.2411857, -0.2971430, -0.2477289, -0.3107272, -1.0345274
C, 00, 00, 0, 0, 0, 0,  0.0282936, -0.2331615, -0.2172981, -0.2417116, -0.2977295, -0.2483387, -0.3114348, -1.0354368
C, 00, 00, 0, 0, 0, 0,  0.0283670, -0.2382894, -0.2177067, -0.2420745, -0.2980919, -0.2487006, -0.3118611, -1.0359675
C, 00, 00, 0, 0, 0, 0,  0.0283260, -0.2355094, -0.2173705, -0.2418242, -0.2977691, -0.2483373, -0.3114405, -1.0354496
C, 00, 00, 0, 0, 0, 0,  0.0284472, -0.2286544, -0.2167478, -0.2412730, -0.2971869, -0.2477250, -0.3107438, -1.0345851
C, 00, 00, 0, 0, 0, 0,  0.0283933, -0.2271018, -0.2167211, -0.2412324, -0.2971931, -0.2477451, -0.3107577, -1.0346562
C, 00, 00, 0, 0, 0, 0,  0.0281439, -0.2329569, -0.2172618, -0.2416692, -0.2976909, -0.2482634, -0.3113761, -1.0354730
C, 00, 00, 0, 0, 0, 0,  0.0281420, -0.2382226, -0.2177263, -0.2421160, -0.2981286, -0.2487030, -0.3118797, -1.0361353
C, 00, 00, 0, 0, 0, 0,  0.0281253, -0.2356091, -0.2173386, -0.2418094, -0.2977629, -0.2482949, -0.3114157, -1.0355736
C, 00, 00, 0, 0, 0, 0,  0.0281267, -0.2287441, -0.2167411, -0.2413340, -0.2972384, -0.2477670, -0.3107710, -1.0348021
C, 00, 00, 0, 0, 0, 0,  0.0281506, -0.2269936, -0.2166572, -0.2412195, -0.2971774, -0.2477084, -0.3107148, -1.0347735
C, 00, 00, 0, 0, 0, 0,  0.0284343, -0.2327662, -0.2172718, -0.2417407, -0.2977596, -0.2483182, -0.3114343, -1.0357047
C, 00, 00, 0, 0, 0, 0,  0.0284152, -0.2381425, -0.2176790, -0.2421093, -0.2981224, -0.2486835, -0.3118692, -1.0362588
C, 00, 00, 0, 0, 0, 0,  0.0281434, -0.2357240, -0.2173448, -0.2418571, -0.2978044, -0.2483340, -0.3114591, -1.0357639
C, 00, 00, 0, 0, 0, 0,  0.0280957, -0.2288080, -0.2166691, -0.2412486, -0.2971664, -0.2476640, -0.3106985, -1.0348326
C, 00, 00, 0, 0, 0, 0,  0.0282111, -0.2268486, -0.2166176, -0.2411766, -0.2971397, -0.2476712, -0.3106819, -1.0348464
C, 00, 00, 0, 0, 0, 0,  0.0281410, -0.2325082, -0.2171979, -0.2416544, -0.2976814, -0.2482624, -0.3113637, -1.0357267
C, 00, 00, 0, 0, 0, 0,  0.0281911, -0.2380042, -0.2176547, -0.2420788, -0.2980991, -0.2486940, -0.3118463, -1.0363599
C, 00, 00, 0, 0, 0, 0,  0.0283203, -0.2357750, -0.2173147, -0.2418127, -0.2977686, -0.2483254, -0.3114324, -1.0358464
C, 00, 00, 0, 0, 0, 0,  0.0282130, -0.2288709, -0.2166915, -0.2412935, -0.2972141, -0.2477536, -0.3107486, -1.0350415
C, 00, 00, 0, 0, 0, 0,  0.0281234, -0.2267332, -0.2165795, -0.2411728, -0.2971430, -0.2476936, -0.3106780, -1.0350090
C, 00, 00, 0, 0, 0, 0,  0.0281849, -0.2322860, -0.2171884, -0.2416830, -0.2977295, -0.2483092, -0.3113909, -1.0359379
C, 00, 00, 0, 0, 0, 0,  0.0283017, -0.2379098, -0.2176495, -0.2420540, -0.2981248, -0.2487121, -0.3118654, -1.0365268
C, 00, 00, 0, 0, 0, 0,  0.0282650, -0.2358895, -0.2173944, -0.2418547, -0.2978711, -0.2484427, -0.3115235, -1.0361120
C, 00, 00, 0, 0, 0, 0,  0.0281520, -0.2289629, -0.2166920, -0.2412434, -0.2972131, -0.2477393, -0.3107257, -1.0351306
C, 00, 00, 0, 0, 0, 0,  0.0282488, -0.2266045, -0.2165799, -0.2411266, -0.2971273, -0.2476735, -0.3106470, -1.0350758
C, 00, 00, 0, 0, 0, 0,  0.0282579, -0.2320037, -0.2171240, -0.2415691, -0.2976470, -0.2482105, -0.3112903, -1.0358998
C, 00, 00, 0, 0, 0, 0,  0.0281920, -0.2377606, -0.2176547, -0.2420717, -0.2981639, -0.2487269, -0.3118949, -1.0366570
C, 00, 00, 0, 0, 0, 0,  0.0282588, -0.2359314, -0.2173624, -0.2418404, -0.2978835, -0.2484141, -0.3115464, -1.0362235
C, 00, 00, 0, 0, 0, 0,  0.0281191, -0.2290440, -0.2167301, -0.2413078, -0.2973147, -0.2478133, -0.3108426, -1.0353781
C, 00, 00, 0, 0, 0, 0,  0.0279613, -0.2264853, -0.2165132, -0.2410703, -0.2971316, -0.2476311, -0.3106470, -1.0351855
C, 00, 00, 0, 0, 0, 0,  0.0280738, -0.2317815, -0.2171340, -0.2415757, -0.2977090, -0.2482591, -0.3113623, -1.0361120
C, 00, 00, 0, 0, 0, 0,  0.0281897, -0.2376242, -0.2176123, -0.2419882, -0.2981234, -0.2486902, -0.3118716, -1.0367500
C, 00, 00, 0, 0, 0, 0,  0.0281963, -0.2359681, -0.2173395, -0.2417970, -0.2978750, -0.2484184, -0.3115330, -1.0363542
C, 00, 00, 0, 0, 0, 0,  0.0282207, -0.2290578, -0.2166538, -0.2411981, -0.2972312, -0.2477670, -0.3107448, -1.0354139
C, 00, 00, 0, 0, 0, 0,  0.0282826, -0.2263303, -0.2165170, -0.2410751, -0.2971278, -0.2476950, -0.3106256, -1.0353233
C, 00, 00, 0, 0, 0, 0,  0.0283332, -0.2314635, -0.2170415, -0.2414966, -0.2976013, -0.2482062, -0.3112393, -1.0360986
C, 00, 00, 0, 0, 0, 0,  0.0282283, -0.2374063, -0.2175932, -0.2419820, -0.2980838, -0.2487068, -0.3118248, -1.0368334
C, 00, 00, 0, 0, 0, 0,  0.0281806, -0.2359600, -0.2173562, -0.2417975, -0.2978402, -0.2484327, -0.3115158, -1.0364467
C, 00, 00, 0, 0, 0, 0,  0.0280051, -0.2291127, -0.2167473, -0.2413068, -0.2972975, -0.2478743, -0.3108507, -1.0356618
C, 00, 00, 0, 0, 0, 0,  0.0280652, -0.2261777, -0.2165146, -0.2410636, -0.2970758, -0.2476545, -0.3106108, -1.0354134
C, 00, 00, 0, 0, 0, 0,  0.0281048, -0.2311945, -0.2170830, -0.2415366, -0.2976089, -0.2482252, -0.3112579, -1.0362741
C, 00, 00, 0, 0, 0, 0,  0.0281916, -0.2372418, -0.2176128, -0.2419982, -0.2980814, -0.2487049, -0.3118248, -1.0370036
C, 00, 00, 0, 0, 0, 0,  0.0280323, -0.2359872, -0.2174101, -0.2418533, -0.2978754, -0.2484765, -0.3115373, -1.0366613
C, 00, 00, 0, 0, 0, 0,  0.0281806, -0.2291336, -0.2167354, -0.2412491, -0.2972303, -0.2477932, -0.3107577, -1.0356957
C, 00, 00, 0, 0, 0, 0,  0.0282126, -0.2260437, -0.2165656, -0.2410817, -0.2970982, -0.2476712, -0.3106184, -1.0355598
C, 00, 00, 0, 0, 0, 0,  0.0283961, -0.2309208, -0.2170716, -0.2415071, -0.2975936, -0.2481933, -0.3112393, -1.0363637
C, 00, 00, 0, 0, 0, 0,  0.0282712, -0.2370477, -0.2175899, -0.2419868, -0.2980709, -0.2486949, -0.3118110, -1.0370909
C, 00, 00, 0, 0, 0, 0,  0.0281148, -0.2359958, -0.2173786, -0.2418137, -0.2978425, -0.2484308, -0.3115292, -1.0367295
C, 00, 00, 0, 0, 0, 0,  0.0282087, -0.2292190, -0.2167940, -0.2413307, -0.2973199, -0.2478810, -0.3108750, -1.0359346
C, 00, 00, 0, 0, 0, 0,  0.0281549, -0.2259531, -0.2165599, -0.2410980, -0.2971115, -0.2476492, -0.3106332, -1.0356695
C, 00, 00, 0, 0, 0, 0,  0.0282116, -0.2306671, -0.2170782, -0.2415180, -0.2975798, -0.2481456, -0.3112278, -1.0364362
C, 00, 00, 0, 0, 0, 0,  0.0281282, -0.2368655, -0.2175927, -0.2419539, -0.2980185, -0.2486124, -0.3117762, -1.0371271
C, 00, 00, 0, 0, 0, 0,  0.0281539, -0.2360277, -0.2174521, -0.2418714, -0.2978740, -0.2484637, -0.3115707, -1.0369016
C, 00, 00, 0, 0, 0, 0,  0.0282350, -0.2292714, -0.2168012, -0.2413039, -0.2972789, -0.2478252, -0.3108402, -1.0360037
C, 00, 00, 0, 0, 0, 0,  0.0281754, -0.2258239, -0.2165790, -0.2410922, -0.2970953, -0.2476425, -0.3106089, -1.0357648
C, 00, 00, 0, 0, 0, 0,  0.0281315, -0.2304111, -0.2170811, -0.2414828, -0.2975631, -0.2481499, -0.3111925, -1.0365115
C, 00, 00, 0, 0, 0, 0,  0.0279856, -0.2367049, -0.2176481, -0.2419744, -0.2980762, -0.2486782, -0.3117848, -1.0372669
C, 00, 00, 0, 0, 0, 0,  0.0281544, -0.2360468, -0.2174516, -0.2418180, -0.2978702, -0.2484389, -0.3115225, -1.0369283
C, 00, 00, 0, 0, 0, 0,  0.0280380, -0.2293186, -0.2168007, -0.2412882, -0.2972989, -0.2478428, -0.3108254, -1.0360676
C, 00, 00, 0, 0, 0, 0,  0.0281887, -0.2256923, -0.2165180, -0.2410145, -0.2970581, -0.2476106, -0.3105617, -1.0357667
C, 00, 00, 0, 0, 0, 0,  0.0283656, -0.2301407, -0.2170534, -0.2414661, -0.2975827, -0.2481818, -0.3112069, -1.0366160
C, 00, 00, 0, 0, 0, 0,  0.0282607, -0.2365022, -0.2175713, -0.2419186, -0.2980452, -0.2486525, -0.3117686, -1.0373198
C, 00, 00, 0, 0, 0, 0,  0.0281768, -0.2360850, -0.2174883, -0.2418871, -0.2979656, -0.2485667, -0.3116427, -1.0371538
C, 00, 00, 0, 0, 0, 0,  0.0280533, -0.2294269, -0.2168327, -0.2412939, -0.2973504, -0.2479229, -0.3108902, -1.0362374
C, 00, 00, 0, 0, 0, 0,  0.0280395, -0.2256480, -0.2165876, -0.2410727, -0.2971478, -0.2477346, -0.3106523, -1.0359951
C, 00, 00, 0, 0, 0, 0,  0.0282593, -0.2299223, -0.2170429, -0.2414308, -0.2975664, -0.2481890, -0.3111854, -1.0367075
C, 00, 00, 0, 0, 0, 0,  0.0281491, -0.2363849, -0.2176481, -0.2419672, -0.2981167, -0.2487693, -0.3118377, -1.0375577
C, 00, 00, 0, 0, 0, 0,  0.0278974, -0.2361508, -0.2175060, -0.2418599, -0.2979474, -0.2485805, -0.3116269, -1.0372864
C, 00, 00, 0, 0, 0, 0,  0.0280180, -0.2295151, -0.2168637, -0.2413154, -0.2973533, -0.2479439, -0.3108840, -1.0363852
C, 00, 00, 0, 0, 0, 0,  0.0281806, -0.2255621, -0.2165633, -0.2410260, -0.2970925, -0.2476731, -0.3105913, -1.0360619
C, 00, 00, 0, 0, 0, 0,  0.0280991, -0.2296958, -0.2170558, -0.2414427, -0.2975688, -0.2481790, -0.3111859, -1.0368344
C, 00, 00, 0, 0, 0, 0,  0.0279870, -0.2362118, -0.2175989, -0.2419205, -0.2980738, -0.2486930, -0.3117838, -1.0375854
C, 00, 00, 0, 0, 0, 0,  0.0278883, -0.2361751, -0.2175126, -0.2418871, -0.2979980, -0.2485934, -0.3116575, -1.0374199
C, 00, 00, 0, 0, 0, 0,  0.0277357, -0.2295933, -0.2168107, -0.2412806, -0.2973500, -0.2479091, -0.3108583, -1.0364300
C, 00, 00, 0, 0, 0, 0,  0.0278373, -0.2254839, -0.2165513, -0.2410417, -0.2971425, -0.2477188, -0.3106151, -1.0361654
C, 00, 00, 0, 0, 0, 0,  0.0282922, -0.2294359, -0.2169757, -0.2413698, -0.2975378, -0.2481404, -0.3111143, -1.0368258
C, 00, 00, 0, 0, 0, 0,  0.0282660, -0.2359968, -0.2175517, -0.2418971, -0.2980800, -0.2486897, -0.3117509, -1.0376593
C, 00, 00, 0, 0, 0, 0,  0.0282292, -0.2361656, -0.2174526, -0.2418480, -0.2979784, -0.2485724, -0.3116184, -1.0374962
C, 00, 00, 0, 0, 0, 0,  0.0283003, -0.2296920, -0.2168403, -0.2413507, -0.2974296, -0.2479954, -0.3109370, -1.0366632
C, 00, 00, 0, 0, 0, 0,  0.0282912, -0.2254019, -0.2164755, -0.2409959, -0.2971053, -0.2476569, -0.3105698, -1.0362340
C, 00, 00, 0, 0, 0, 0,  0.0282950, -0.2291689, -0.2168927, -0.2413354, -0.2975150, -0.2480889, -0.3110752, -1.0369068
C, 00, 00, 0, 0, 0, 0,  0.0283961, -0.2357841, -0.2174635, -0.2418251, -0.2980328, -0.2486105, -0.3116994, -1.0376889
C, 00, 00, 0, 0, 0, 0,  0.0284495, -0.2361646, -0.2174692, -0.2418857, -0.2980276, -0.2485953, -0.3116699, -1.0376235
C, 00, 00, 0, 0, 0, 0,  0.0282512, -0.2297378, -0.2168160, -0.2413268, -0.2974091, -0.2479468, -0.3109227, -1.0366927
C, 00, 00, 0, 0, 0, 0,  0.0280352, -0.2252789, -0.2164698, -0.2410107, -0.2970991, -0.2476478, -0.3105579, -1.0362917
C, 00, 00, 0, 0, 0, 0,  0.0281711, -0.2288714, -0.2168708, -0.2413068, -0.2974644, -0.2480431, -0.3110342, -1.0369169
C, 00, 00, 0, 0, 0, 0,  0.0284019, -0.2355676, -0.2175422, -0.2418785, -0.2980667, -0.2486773, -0.3117738, -1.0378400
C, 00, 00, 0, 0, 0, 0,  0.0282540, -0.2361160, -0.2174492, -0.2418070, -0.2979474, -0.2485466, -0.3116169, -1.0376464
C, 00, 00, 0, 0, 0, 0,  0.0282459, -0.2297550, -0.2168198, -0.2412982, -0.2973743, -0.2479468, -0.3109179, -1.0367891
C, 00, 00, 0, 0, 0, 0,  0.0284786, -0.2251454, -0.2164159, -0.2409320, -0.2970238, -0.2475901, -0.3105169, -1.0363265
C, 00, 00, 0, 0, 0, 0,  0.0285497, -0.2285848, -0.2168536, -0.2412825, -0.2974415, -0.2480297, -0.3110366, -1.0370156
C, 00, 00, 0, 0, 0, 0,  0.0285239, -0.2352939, -0.2174621, -0.2417822, -0.2979808, -0.2485638, -0.3116970, -1.0378295
C, 00, 00, 0, 0, 0, 0,  0.0284863, -0.2360812, -0.2174907, -0.2418371, -0.2980123, -0.2485705, -0.3117075, -1.0378238
C, 00, 00, 0, 0, 0, 0,  0.0283446, -0.2297898, -0.2168122, -0.2412491, -0.2973738, -0.2478776, -0.3109374, -1.0368568
C, 00, 00, 0, 0, 0, 0,  0.0283599, -0.2250419, -0.2164512, -0.2409468, -0.2970667, -0.2475744, -0.3105779, -1.0364376
C, 00, 00, 0, 0, 0, 0,  0.0284348, -0.2282987, -0.2168222, -0.2412453, -0.2974115, -0.2479463, -0.3110252, -1.0370218
C, 00, 00, 0, 0, 0, 0,  0.0285382, -0.2350855, -0.2174979, -0.2418337, -0.2980399, -0.2485986, -0.3117705, -1.0379731
C, 00, 00, 0, 0, 0, 0,  0.0286384, -0.2360292, -0.2174545, -0.2417908, -0.2979737, -0.2485080, -0.3116670, -1.0378453
C, 00, 00, 0, 0, 0, 0,  0.0285716, -0.2298694, -0.2168699, -0.2413221, -0.2974577, -0.2479754, -0.3110309, -1.0370442
C, 00, 00, 0, 0, 0, 0,  0.0285616, -0.2249913, -0.2164421, -0.2409478, -0.2970929, -0.2475939, -0.3106137, -1.0365421
C, 00, 00, 0, 0, 0, 0,  0.0285158, -0.2280841, -0.2168422, -0.2412615, -0.2974735, -0.2480059, -0.3110862, -1.0371767
C, 00, 00, 0, 0, 0, 0,  0.0286741, -0.2348624, -0.2174249, -0.2417331, -0.2979837, -0.2485395, -0.3117128, -1.0379683
C, 00, 00, 0, 0, 0, 0,  0.0287123, -0.2360511, -0.2175060, -0.2418337, -0.2980357, -0.2486034, -0.3117595, -1.0380255
C, 00, 00, 0, 0, 0, 0,  0.0285392, -0.2299648, -0.2168703, -0.2412949, -0.2974372, -0.2479821, -0.3110347, -1.0371434
C, 00, 00, 0, 0, 0, 0,  0.0285683, -0.2249527, -0.2164755, -0.2409549, -0.2971006, -0.2476483, -0.3106437, -1.0367032
C, 00, 00, 0, 0, 0, 0,  0.0285883, -0.2278652, -0.2167888, -0.2411938, -0.2973967, -0.2479620, -0.3110400, -1.0372473
C, 00, 00, 0, 0, 0, 0,  0.0285811, -0.2346716, -0.2174163, -0.2417498, -0.2979617, -0.2485500, -0.3117223, -1.0381409
C, 00, 00, 0, 0, 0, 0,  0.0286083, -0.2360468, -0.2174573, -0.2418046, -0.2979784, -0.2485409, -0.3117199, -1.0381419
C, 00, 00, 0, 0, 0, 0,  0.0285616, -0.2300701, -0.2169018, -0.2413426, -0.2974635, -0.2479940, -0.3110695, -1.0373431
C, 00, 00, 0, 0, 0, 0,  0.0285931, -0.2249117, -0.2164397, -0.2409230, -0.2970620, -0.2475787, -0.3105898, -1.0367676
C, 00, 00, 0, 0, 0, 0,  0.0286336, -0.2276302, -0.2167840, -0.2411895, -0.2974029, -0.2479515, -0.3110061, -1.0373102
C, 00, 00, 0, 0, 0, 0,  0.0286932, -0.2344799, -0.2174325, -0.2417345, -0.2979837, -0.2485524, -0.3117175, -1.0381933
C, 00, 00, 0, 0, 0, 0,  0.0286775, -0.2360592, -0.2175403, -0.2418614, -0.2980528, -0.2486143, -0.3117805, -1.0382825
C, 00, 00, 0, 0, 0, 0,  0.0286937, -0.2301679, -0.2169009, -0.2413197, -0.2974539, -0.2479739, -0.3110400, -1.0373737
C, 00, 00, 0, 0, 0, 0,  0.0287108, -0.2248574, -0.2164340, -0.2409268, -0.2970581, -0.2475725, -0.3105660, -1.0368115
C, 00, 00, 0, 0, 0, 0,  0.0288072, -0.2273927, -0.2167335, -0.2411509, -0.2973342, -0.2478714, -0.3109389, -1.0373012
C, 00, 00, 0, 0, 0, 0,  0.0286431, -0.2342649, -0.2174359, -0.2417507, -0.2979722, -0.2485357, -0.3117152, -1.0382763
C, 00, 00, 0, 0, 0, 0,  0.0283952, -0.2360196, -0.2174707, -0.2417832, -0.2979665, -0.2485113, -0.3116908, -1.0382315
C, 00, 00, 0, 0, 0, 0,  0.0286312, -0.2302566, -0.2169404, -0.2413602, -0.2974730, -0.2480011, -0.3110648, -1.0374566
C, 00, 00, 0, 0, 0, 0,  0.0288143, -0.2248397, -0.2164679, -0.2409430, -0.2970467, -0.2475672, -0.3105574, -1.0368358
C, 00, 00, 0, 0, 0, 0,  0.0288820, -0.2271872, -0.2167611, -0.2411843, -0.2973376, -0.2479058, -0.3109188, -1.0373346
C, 00, 00, 0, 0, 0, 0,  0.0289040, -0.2340365, -0.2173624, -0.2416940, -0.2978931, -0.2484737, -0.3115993, -1.0381805
C, 00, 00, 0, 0, 0, 0,  0.0287385, -0.2359777, -0.2174721, -0.2418371, -0.2979861, -0.2485676, -0.3117032, -1.0382959
C, 00, 00, 0, 0, 0, 0,  0.0287752, -0.2303024, -0.2168603, -0.2413163, -0.2974153, -0.2479625, -0.3110013, -1.0374199
C, 00, 00, 0, 0, 0, 0,  0.0288148, -0.2247629, -0.2164326, -0.2409392, -0.2970486, -0.2476001, -0.3105569, -1.0368706
C, 00, 00, 0, 0, 0, 0,  0.0287600, -0.2269511, -0.2167325, -0.2411576, -0.2973476, -0.2479320, -0.3109441, -1.0373622
C, 00, 00, 0, 0, 0, 0,  0.0288100, -0.2338405, -0.2174182, -0.2417426, -0.2979751, -0.2486034, -0.3116999, -1.0383364
C, 00, 00, 0, 0, 0, 0,  0.0288110, -0.2359686, -0.2174721, -0.2418042, -0.2979837, -0.2486162, -0.3117137, -1.0383612
C, 00, 00, 0, 0, 0, 0,  0.0286722, -0.2304440, -0.2169590, -0.2413888, -0.2974992, -0.2481051, -0.3111234, -1.0376221
C, 00, 00, 0, 0, 0, 0,  0.0287538, -0.2248016, -0.2164860, -0.2409444, -0.2970519, -0.2476378, -0.3105955, -1.0369808
C, 00, 00, 0, 0, 0, 0,  0.0288849, -0.2267919, -0.2167998, -0.2411886, -0.2973400, -0.2479697, -0.3109713, -1.0374686
C, 00, 00, 0, 0, 0, 0,  0.0288639, -0.2336388, -0.2173896, -0.2416935, -0.2978573, -0.2485318, -0.3116336, -1.0382792
C, 00, 00, 0, 0, 0, 0,  0.0288911, -0.2360015, -0.2175632, -0.2419024, -0.2980185, -0.2486949, -0.3118110, -1.0384804
C, 00, 00, 0, 0, 0, 0,  0.0288177, -0.2305742, -0.2169786, -0.2414151, -0.2974630, -0.2481079, -0.3111453, -1.0376340
C, 00, 00, 0, 0, 0, 0,  0.0286703, -0.2248173, -0.2165127, -0.2410012, -0.2970457, -0.2476869, -0.3106518, -1.0370280
C, 00, 00, 0, 0, 0, 0,  0.0288024, -0.2265911, -0.2167220, -0.2411299, -0.2972479, -0.2478948, -0.3109184, -1.0373813
C, 00, 00, 0, 0, 0, 0,  0.0289812, -0.2334595, -0.2174263, -0.2417345, -0.2978878, -0.2485724, -0.3116999, -1.0383664
C, 00, 00, 0, 0, 0, 0,  0.0289741, -0.2359710, -0.2175269, -0.2418213, -0.2979489, -0.2485962, -0.3117595, -1.0384237
C, 00, 00, 0, 0, 0, 0,  0.0287743, -0.2306614, -0.2169824, -0.2413860, -0.2974496, -0.2480564, -0.3111310, -1.0376464
C, 00, 00, 0, 0, 0, 0,  0.0286374, -0.2247806, -0.2164545, -0.2409091, -0.2969642, -0.2475720, -0.3105541, -1.0369517
C, 00, 00, 0, 0, 0, 0,  0.0286508, -0.2263770, -0.2167239, -0.2411232, -0.2972346, -0.2478776, -0.3109117, -1.0374099
C, 00, 00, 0, 0, 0, 0,  0.0288830, -0.2332335, -0.2173844, -0.2416730, -0.2978316, -0.2484923, -0.3116517, -1.0383364
C, 00, 00, 0, 0, 0, 0,  0.0288849, -0.2359543, -0.2175532, -0.2418504, -0.2979851, -0.2486477, -0.3118096, -1.0385248
C, 00, 00, 0, 0, 0, 0,  0.0289583, -0.2308040, -0.2169953, -0.2413912, -0.2974663, -0.2480884, -0.3111616, -1.0377137
C, 00, 00, 0, 0, 0, 0,  0.0289416, -0.2248273, -0.2164874, -0.2409554, -0.2970133, -0.2476268, -0.3106118, -1.0370814
C, 00, 00, 0, 0, 0, 0,  0.0288744, -0.2262345, -0.2167063, -0.2411146, -0.2972365, -0.2478700, -0.3109074, -1.0374848
C, 00, 00, 0, 0, 0, 0,  0.0287461, -0.2330885, -0.2173882, -0.2417097, -0.2978773, -0.2485533, -0.3116765, -1.0384642
C, 00, 00, 0, 0, 0, 0,  0.0288563, -0.2359901, -0.2175503, -0.2418490, -0.2980066, -0.2486587, -0.3118167, -1.0386263
C, 00, 00, 0, 0, 0, 0,  0.0289001, -0.2309838, -0.2170520, -0.2414298, -0.2975331, -0.2481518, -0.3112264, -1.0378796
C, 00, 00, 0, 0, 0, 0,  0.0288239, -0.2249103, -0.2164831, -0.2409306, -0.2970238, -0.2476163, -0.3106242, -1.0371357
C, 00, 00, 0, 0, 0, 0,  0.0289836, -0.2261224, -0.2166915, -0.2411065, -0.2972618, -0.2478757, -0.3109298, -1.0375391
C, 00, 00, 0, 0, 0, 0,  0.0290794, -0.2329378, -0.2173071, -0.2416334, -0.2978311, -0.2484756, -0.3116446, -1.0384208
C, 00, 00, 0, 0, 0, 0,  0.0290709, -0.2360277, -0.2175398, -0.2418599, -0.2980242, -0.2486568, -0.3118525, -1.0386688
C, 00, 00, 0, 0, 0, 0,  0.0289159, -0.2311201, -0.2169605, -0.2413512, -0.2974615, -0.2480393, -0.3111520, -1.0377952
C, 00, 00, 0, 0, 0, 0,  0.0289073, -0.2249508, -0.2164469, -0.2408977, -0.2969938, -0.2475658, -0.3105884, -1.0371314
C, 00, 00, 0, 0, 0, 0,  0.0289998, -0.2259441, -0.2166114, -0.2410016, -0.2971468, -0.2477451, -0.3108058, -1.0374376
C, 00, 00, 0, 0, 0, 0,  0.0289993, -0.2327209, -0.2172876, -0.2416005, -0.2977662, -0.2484117, -0.3115707, -1.0384113
C, 00, 00, 0, 0, 0, 0,  0.0289125, -0.2359658, -0.2174769, -0.2417894, -0.2979145, -0.2485576, -0.3117462, -1.0386201
C, 00, 00, 0, 0, 0, 0,  0.0289264, -0.2312265, -0.2169876, -0.2414022, -0.2974615, -0.2480855, -0.3111716, -1.0379010
C, 00, 00, 0, 0, 0, 0,  0.0289736, -0.2249751, -0.2164097, -0.2408839, -0.2969308, -0.2475410, -0.3105374, -1.0371295
C, 00, 00, 0, 0, 0, 0,  0.0289621, -0.2257834, -0.2166138, -0.2410250, -0.2971397, -0.2477808, -0.3107968, -1.0374857
C, 00, 00, 0, 0, 0, 0,  0.0289683, -0.2325177, -0.2172489, -0.2415390, -0.2977233, -0.2483855, -0.3115182, -1.0383722
C, 00, 00, 0, 0, 0, 0,  0.0289664, -0.2359777, -0.2175403, -0.2418194, -0.2979875, -0.2486573, -0.3118139, -1.0387198
C, 00, 00, 0, 0, 0, 0,  0.0288658, -0.2313710, -0.2170072, -0.2413564, -0.2974668, -0.2481013, -0.3111716, -1.0379015
C, 00, 00, 0, 0, 0, 0,  0.0288239, -0.2250681, -0.2165194, -0.2409282, -0.2970267, -0.2476507, -0.3106389, -1.0372530
C, 00, 00, 0, 0, 0, 0,  0.0288458, -0.2256861, -0.2166691, -0.2410050, -0.2971611, -0.2478142, -0.3108321, -1.0375143
C, 00, 00, 0, 0, 0, 0,  0.0291328, -0.2324014, -0.2173500, -0.2415877, -0.2977853, -0.2484904, -0.3116012, -1.0384857
C, 00, 00, 0, 0, 0, 0,  0.0290623, -0.2360091, -0.2175718, -0.2417870, -0.2979546, -0.2486668, -0.3118039, -1.0387217
C, 00, 00, 0, 0, 0, 0,  0.0289984, -0.2315607, -0.2170854, -0.2413912, -0.2974935, -0.2481833, -0.3112250, -1.0380002
C, 00, 00, 0, 0, 0, 0,  0.0291214, -0.2251721, -0.2165113, -0.2408853, -0.2969699, -0.2476464, -0.3106079, -1.0372382
C, 00, 00, 0, 0, 0, 0,  0.0290580, -0.2255841, -0.2166491, -0.2409869, -0.2971168, -0.2478237, -0.3107996, -1.0375029
C, 00, 00, 0, 0, 0, 0,  0.0292020, -0.2322278, -0.2172470, -0.2415076, -0.2976785, -0.2484031, -0.3114992, -1.0383807
C, 00, 00, 0, 0, 0, 0,  0.0291090, -0.2360306, -0.2175565, -0.2418247, -0.2979808, -0.2487030, -0.3118315, -1.0387961
C, 00, 00, 0, 0, 0, 0,  0.0287728, -0.2317453, -0.2170277, -0.2413912, -0.2974873, -0.2481623, -0.3112131, -1.0380145
C, 00, 00, 0, 0, 0, 0,  0.0289946, -0.2252937, -0.2164874, -0.2409382, -0.2970167, -0.2476859, -0.3106485, -1.0373217
C, 00, 00, 0, 0, 0, 0,  0.0288944, -0.2254873, -0.2165518, -0.2409535, -0.2970963, -0.2477694, -0.3107582, -1.0374857
C, 00, 00, 0, 0, 0, 0,  0.0290732, -0.2321129, -0.2172637, -0.2415619, -0.2977605, -0.2484641, -0.3115592, -1.0384914
C, 00, 00, 0, 0, 0, 0,  0.0290351, -0.2360792, -0.2175393, -0.2418089, -0.2979870, -0.2486816, -0.3118182, -1.0388013
C, 00, 00, 0, 0, 0, 0,  0.0289121, -0.2319446, -0.2170563, -0.2414341, -0.2975374, -0.2482071, -0.3112483, -1.0380951
C, 00, 00, 0, 0, 0, 0,  0.0288858, -0.2253943, -0.2164364, -0.2408834, -0.2969761, -0.2476349, -0.3105727, -1.0372697
C, 00, 00, 0, 0, 0, 0,  0.0291262, -0.2254157, -0.2166009, -0.2410002, -0.2971368, -0.2478476, -0.3107839, -1.0375782
C, 00, 00, 0, 0, 0, 0,  0.0293989, -0.2319379, -0.2172070, -0.2415014, -0.2976690, -0.2484050, -0.3114653, -1.0384427
C, 00, 00, 0, 0, 0, 0,  0.0293093, -0.2360735, -0.2175517, -0.2418561, -0.2979918, -0.2487250, -0.3118387, -1.0389100
C, 00, 00, 0, 0, 0, 0,  0.0292459, -0.2320843, -0.2170353, -0.2414403, -0.2975164, -0.2482076, -0.3112340, -1.0381681
C, 00, 00, 0, 0, 0, 0,  0.0292883, -0.2254787, -0.2164612, -0.2409449, -0.2969985, -0.2476917, -0.3106084, -1.0374128
C, 00, 00, 0, 0, 0, 0,  0.0292625, -0.2252708, -0.2165079, -0.2409444, -0.2970515, -0.2477579, -0.3107129, -1.0375553
C, 00, 00, 0, 0, 0, 0,  0.0291200, -0.2317405, -0.2171784, -0.2415252, -0.2976923, -0.2484217, -0.3114791, -1.0385205
C, 00, 00, 0, 0, 0, 0,  0.0290079, -0.2360349, -0.2175150, -0.2418442, -0.2979827, -0.2487202, -0.3118301, -1.0389420
C, 00, 00, 0, 0, 0, 0,  0.0288610, -0.2322512, -0.2171226, -0.2415409, -0.2976070, -0.2483311, -0.3113566, -1.0383602
C, 00, 00, 0, 0, 0, 0,  0.0289049, -0.2255960, -0.2165013, -0.2409830, -0.2970415, -0.2477274, -0.3106580, -1.0375162
C, 00, 00, 0, 0, 0, 0,  0.0290122, -0.2252140, -0.2165838, -0.2410355, -0.2971545, -0.2478476, -0.3107887, -1.0377408
C, 00, 00, 0, 0, 0, 0,  0.0290475, -0.2316051, -0.2171731, -0.2415295, -0.2977004, -0.2484198, -0.3114734, -1.0386068
C, 00, 00, 0, 0, 0, 0,  0.0289955, -0.2360125, -0.2174912, -0.2418366, -0.2979794, -0.2487121, -0.3118048, -1.0390197
C, 00, 00, 0, 0, 0, 0,  0.0289826, -0.2323604, -0.2170258, -0.2414332, -0.2975297, -0.2482267, -0.3112717, -1.0383211
C, 00, 00, 0, 0, 0, 0,  0.0291581, -0.2256565, -0.2164445, -0.2409363, -0.2970190, -0.2476955, -0.3106537, -1.0375649
C, 00, 00, 0, 0, 0, 0,  0.0291805, -0.2250762, -0.2164955, -0.2409420, -0.2970872, -0.2477742, -0.3107529, -1.0377146
C, 00, 00, 0, 0, 0, 0,  0.0290256, -0.2314196, -0.2171784, -0.2415099, -0.2977152, -0.2484412, -0.3115135, -1.0386878
C, 00, 00, 0, 0, 0, 0,  0.0291715, -0.2359963, -0.2175102, -0.2418018, -0.2979861, -0.2487135, -0.3118406, -1.0391041
C, 00, 00, 0, 0, 0, 0,  0.0291915, -0.2325292, -0.2171035, -0.2414909, -0.2975965, -0.2482848, -0.3113490, -1.0384890
C, 00, 00, 0, 0, 0, 0,  0.0289865, -0.2257853, -0.2165003, -0.2409501, -0.2970381, -0.2477022, -0.3106876, -1.0376588
C, 00, 00, 0, 0, 0, 0,  0.0290957, -0.2249942, -0.2165618, -0.2409821, -0.2971120, -0.2478056, -0.3107853, -1.0378200
C, 00, 00, 0, 0, 0, 0,  0.0291233, -0.2312084, -0.2171321, -0.2414418, -0.2976251, -0.2483263, -0.3114128, -1.0386368
C, 00, 00, 0, 0, 0, 0,  0.0289497, -0.2359233, -0.2175298, -0.2418061, -0.2979823, -0.2486830, -0.3118215, -1.0391661
C, 00, 00, 0, 0, 0, 0,  0.0288434, -0.2326556, -0.2171574, -0.2414995, -0.2976175, -0.2482801, -0.3113647, -1.0385820
C, 00, 00, 0, 0, 0, 0,  0.0290566, -0.2258835, -0.2165551, -0.2409926, -0.2970877, -0.2477222, -0.3107152, -1.0377799
C, 00, 00, 0, 0, 0, 0,  0.0290813, -0.2248574, -0.2164965, -0.2409025, -0.2970372, -0.2476731, -0.3106766, -1.0377632
C, 00, 00, 0, 0, 0, 0,  0.0291081, -0.2310033, -0.2171498, -0.2414794, -0.2976427, -0.2483187, -0.3114171, -1.0387007
C, 00, 00, 0, 0, 0, 0,  0.0291081, -0.2358847, -0.2175541, -0.2418404, -0.2980047, -0.2486954, -0.3118387, -1.0392209
C, 00, 00, 0, 0, 0, 0,  0.0290060, -0.2327843, -0.2171970, -0.2415724, -0.2976804, -0.2483340, -0.3114124, -1.0386988
C, 00, 00, 0, 0, 0, 0,  0.0289192, -0.2259403, -0.2165222, -0.2409668, -0.2970486, -0.2476569, -0.3106442, -1.0377728
C, 00, 00, 0, 0, 0, 0,  0.0289664, -0.2247486, -0.2165542, -0.2409773, -0.2970996, -0.2477317, -0.3107224, -1.0379115
C, 00, 00, 0, 0, 0, 0,  0.0291710, -0.2308040, -0.2171312, -0.2414499, -0.2976332, -0.2482992, -0.3114076, -1.0387665
C, 00, 00, 0, 0, 0, 0,  0.0290847, -0.2357984, -0.2175222, -0.2418146, -0.2979942, -0.2486573, -0.3118344, -1.0392925
C, 00, 00, 0, 0, 0, 0,  0.0290084, -0.2328682, -0.2171555, -0.2415128, -0.2976418, -0.2482529, -0.3113823, -1.0387203
C, 00, 00, 0, 0, 0, 0,  0.0290017, -0.2260094, -0.2165299, -0.2409606, -0.2970624, -0.2476464, -0.3106747, -1.0378658
C, 00, 00, 0, 0, 0, 0,  0.0290403, -0.2245889, -0.2164564, -0.2408505, -0.2969942, -0.2475939, -0.3106227, -1.0378453
C, 00, 00, 0, 0, 0, 0,  0.0290637, -0.2305417, -0.2170749, -0.2413965, -0.2975903, -0.2482338, -0.3113561, -1.0387989
C, 00, 00, 0, 0, 0, 0,  0.0292106, -0.2356901, -0.2175069, -0.2417784, -0.2979670, -0.2486224, -0.3118215, -1.0393668
C, 00, 00, 0, 0, 0, 0,  0.0290089, -0.2329545, -0.2171994, -0.2415428, -0.2976661, -0.2483006, -0.3114453, -1.0388767
C, 00, 00, 0, 0, 0, 0,  0.0288072, -0.2260599, -0.2165170, -0.2409230, -0.2970119, -0.2476192, -0.3106604, -1.0379125
C, 00, 00, 0, 0, 0, 0,  0.0289221, -0.2244573, -0.2164803, -0.2408796, -0.2969909, -0.2476201, -0.3106580, -1.0379540
C, 00, 00, 0, 0, 0, 0,  0.0290046, -0.2302962, -0.2170658, -0.2413645, -0.2975293, -0.2481823, -0.3113246, -1.0387980
C, 00, 00, 0, 0, 0, 0,  0.0289001, -0.2355867, -0.2175622, -0.2418390, -0.2979904, -0.2486663, -0.3118611, -1.0394584
C, 00, 00, 0, 0, 0, 0,  0.0287561, -0.2330332, -0.2172075, -0.2415505, -0.2976547, -0.2482872, -0.3114300, -1.0389086
C, 00, 00, 0, 0, 0, 0,  0.0286512, -0.2261315, -0.2165690, -0.2410016, -0.2970724, -0.2476721, -0.3107162, -1.0380331
C, 00, 00, 0, 0, 0, 0,  0.0288420, -0.2243500, -0.2165065, -0.2408939, -0.2970147, -0.2476220, -0.3106671, -1.0380179
C, 00, 00, 0, 0, 0, 0,  0.0290194, -0.2301035, -0.2171412, -0.2414222, -0.2976041, -0.2482558, -0.3113861, -1.0389491
C, 00, 00, 0, 0, 0, 0,  0.0290356, -0.2354956, -0.2175594, -0.2417808, -0.2979617, -0.2486229, -0.3118210, -1.0394918
C, 00, 00, 0, 0, 0, 0,  0.0291333, -0.2330990, -0.2172365, -0.2415333, -0.2976494, -0.2482834, -0.3114300, -1.0390087
C, 00, 00, 0, 0, 0, 0,  0.0289664, -0.2261930, -0.2165728, -0.2409392, -0.2970348, -0.2476259, -0.3106804, -1.0380999
C, 00, 00, 0, 0, 0, 0,  0.0288992, -0.2242284, -0.2165327, -0.2409120, -0.2970405, -0.2476402, -0.3106938, -1.0381657
C, 00, 00, 0, 0, 0, 0,  0.0289693, -0.2298618, -0.2170949, -0.2413793, -0.2975636, -0.2481990, -0.3113456, -1.0390083
C, 00, 00, 0, 0, 0, 0,  0.0289054, -0.2353850, -0.2175613, -0.2418175, -0.2979966, -0.2486568, -0.3118606, -1.0396477
C, 00, 00, 0, 0, 0, 0,  0.0288897, -0.2331763, -0.2172041, -0.2415142, -0.2976466, -0.2482801, -0.3114252, -1.0390941
C, 00, 00, 0, 0, 0, 0,  0.0287752, -0.2262979, -0.2165962, -0.2409959, -0.2970987, -0.2477145, -0.3107577, -1.0382720
C, 00, 00, 0, 0, 0, 0,  0.0287747, -0.2240954, -0.2164226, -0.2408114, -0.2969470, -0.2475772, -0.3106056, -1.0380975
C, 00, 00, 0, 0, 0, 0,  0.0290318, -0.2295943, -0.2170015, -0.2413111, -0.2975107, -0.2481785, -0.3112865, -1.0389749
C, 00, 00, 0, 0, 0, 0,  0.0291066, -0.2352200, -0.2174540, -0.2417040, -0.2979155, -0.2485819, -0.3117624, -1.0395619
C, 00, 00, 0, 0, 0, 0,  0.0289459, -0.2332254, -0.2171998, -0.2415352, -0.2976938, -0.2483311, -0.3114610, -1.0391685
C, 00, 00, 0, 0, 0, 0,  0.0288463, -0.2263456, -0.2165547, -0.2409730, -0.2970972, -0.2477098, -0.3107443, -1.0382749
C, 00, 00, 0, 0, 0, 0,  0.0289125, -0.2239738, -0.2164135, -0.2408405, -0.2969895, -0.2476187, -0.3106218, -1.0381624
C, 00, 00, 0, 0, 0, 0,  0.0289464, -0.2293334, -0.2169361, -0.2412648, -0.2974725, -0.2481313, -0.3112278, -1.0389339
C, 00, 00, 0, 0, 0, 0,  0.0290461, -0.2350893, -0.2174521, -0.2417269, -0.2979393, -0.2486248, -0.3117862, -1.0396162
C, 00, 00, 0, 0, 0, 0,  0.0290566, -0.2332897, -0.2171698, -0.2414894, -0.2976590, -0.2483197, -0.3114291, -1.0391542
C, 00, 00, 0, 0, 0, 0,  0.0288715, -0.2264242, -0.2165776, -0.2409892, -0.2971230, -0.2477560, -0.3107663, -1.0383445
C, 00, 00, 0, 0, 0, 0,  0.0287833, -0.2238593, -0.2163778, -0.2407675, -0.2969418, -0.2475939, -0.3105646, -1.0381357
C, 00, 00, 0, 0, 0, 0,  0.0290127, -0.2291246, -0.2169462, -0.2412458, -0.2974811, -0.2481895, -0.3112178, -1.0389968
C, 00, 00, 0, 0, 0, 0,  0.0291162, -0.2349716, -0.2174263, -0.2416635, -0.2978974, -0.2486153, -0.3117128, -1.0396248
C, 00, 00, 0, 0, 0, 0,  0.0291238, -0.2333708, -0.2172222, -0.2415247, -0.2977038, -0.2483945, -0.3114458, -1.0392896
C, 00, 00, 0, 0, 0, 0,  0.0289388, -0.2265172, -0.2165742, -0.2409730, -0.2971030, -0.2477517, -0.3107267, -1.0383998
C, 00, 00, 0, 0, 0, 0,  0.0288935, -0.2237802, -0.2164026, -0.2408161, -0.2969590, -0.2476230, -0.3105703, -1.0382544
C, 00, 00, 0, 0, 0, 0,  0.0290437, -0.2288995, -0.2169166, -0.2412353, -0.2974267, -0.2481356, -0.3111797, -1.0390230
C, 00, 00, 0, 0, 0, 0,  0.0290260, -0.2348848, -0.2174802, -0.2417589, -0.2979498, -0.2486949, -0.3118263, -1.0398060
C, 00, 00, 0, 0, 0, 0,  0.0289202, -0.2334891, -0.2172337, -0.2415777, -0.2977128, -0.2484246, -0.3115206, -1.0394069
C, 00, 00, 0, 0, 0, 0,  0.0290494, -0.2266593, -0.2166028, -0.2410479, -0.2971416, -0.2478156, -0.3108101, -1.0385348
C, 00, 00, 0, 0, 0, 0,  0.0291743, -0.2237282, -0.2163625, -0.2407985, -0.2969289, -0.2475939, -0.3105698, -1.0382663
C, 00, 00, 0, 0, 0, 0,  0.0290871, -0.2287512, -0.2169447, -0.2412663, -0.2974787, -0.2481928, -0.3112517, -1.0391461
C, 00, 00, 0, 0, 0, 0,  0.0291181, -0.2347927, -0.2174111, -0.2416635, -0.2978969, -0.2486105, -0.3117628, -1.0397717
C, 00, 00, 0, 0, 0, 0,  0.0291619, -0.2335983, -0.2172523, -0.2415667, -0.2977515, -0.2484594, -0.3115507, -1.0395047
C, 00, 00, 0, 0, 0, 0,  0.0291376, -0.2267881, -0.2166109, -0.2409945, -0.2971349, -0.2478199, -0.3107939, -1.0385844
C, 00, 00, 0, 0, 0, 0,  0.0291076, -0.2237053, -0.2164517, -0.2408262, -0.2969962, -0.2477055, -0.3106337, -1.0384246
C, 00, 00, 0, 0, 0, 0,  0.0291104, -0.2285652, -0.2169581, -0.2412072, -0.2974472, -0.2481776, -0.3111902, -1.0391489
C, 00, 00, 0, 0, 0, 0,  0.0291023, -0.2347122, -0.2174988, -0.2416821, -0.2979288, -0.2486735, -0.3117638, -1.0398566
C, 00, 00, 0, 0, 0, 0,  0.0291066, -0.2337060, -0.2173019, -0.2415395, -0.2977333, -0.2484398, -0.3115182, -1.0395309
C, 00, 00, 0, 0, 0, 0,  0.0290794, -0.2269316, -0.2166744, -0.2410217, -0.2971659, -0.2478462, -0.3108130, -1.0386621
C, 00, 00, 0, 0, 0, 0,  0.0290351, -0.2236338, -0.2163835, -0.2407460, -0.2969113, -0.2475810, -0.3105183, -1.0383183
C, 00, 00, 0, 0, 0, 0,  0.0292001, -0.2283497, -0.2169233, -0.2411981, -0.2974172, -0.2481370, -0.3111477, -1.0391303
C, 00, 00, 0, 0, 0, 0,  0.0293918, -0.2345944, -0.2174793, -0.2416635, -0.2978917, -0.2486334, -0.3117447, -1.0398580
C, 00, 00, 0, 0, 0, 0,  0.0291901, -0.2337756, -0.2173062, -0.2415428, -0.2977200, -0.2484322, -0.3115120, -1.0395609
C, 00, 00, 0, 0, 0, 0,  0.0291939, -0.2270127, -0.2166271, -0.2409516, -0.2970939, -0.2477689, -0.3107543, -1.0386025
C, 00, 00, 0, 0, 0, 0,  0.0293393, -0.2235875, -0.2164560, -0.2408080, -0.2969647, -0.2476468, -0.3106137, -1.0384198
C, 00, 00, 0, 0, 0, 0,  0.0293212, -0.2281709, -0.2169175, -0.2412167, -0.2974053, -0.2481098, -0.3111730, -1.0391108
C, 00, 00, 0, 0, 0, 0,  0.0291572, -0.2344780, -0.2174540, -0.2417274, -0.2979036, -0.2486296, -0.3117628, -1.0398651
C, 00, 00, 0, 0, 0, 0,  0.0291247, -0.2338777, -0.2172885, -0.2416201, -0.2977457, -0.2484355, -0.3115454, -1.0395991
C, 00, 00, 0, 0, 0, 0,  0.0292220, -0.2271905, -0.2166672, -0.2411099, -0.2971845, -0.2478414, -0.3108511, -1.0387479
C, 00, 00, 0, 0, 0, 0,  0.0290866, -0.2235599, -0.2163759, -0.2408085, -0.2969194, -0.2475720, -0.3105536, -1.0383927
C, 00, 00, 0, 0, 0, 0,  0.0292959, -0.2279721, -0.2168737, -0.2411938, -0.2973814, -0.2480703, -0.3111215, -1.0391194
C, 00, 00, 0, 0, 0, 0,  0.0294695, -0.2343803, -0.2174444, -0.2416821, -0.2978983, -0.2485915, -0.3117338, -1.0398818
C, 00, 00, 0, 0, 0, 0,  0.0293851, -0.2339802, -0.2173195, -0.2416311, -0.2977891, -0.2484627, -0.3115683, -1.0396715
C, 00, 00, 0, 0, 0, 0,  0.0291662, -0.2272978, -0.2166062, -0.2410131, -0.2971325, -0.2477579, -0.3107705, -1.0386664
C, 00, 00, 0, 0, 0, 0,  0.0291839, -0.2235227, -0.2163773, -0.2408171, -0.2969571, -0.2475901, -0.3105693, -1.0384342
C, 00, 00, 0, 0, 0, 0,  0.0294189, -0.2277975, -0.2168308, -0.2411847, -0.2973686, -0.2480426, -0.3110991, -1.0391127
C, 00, 00, 0, 0, 0, 0,  0.0293555, -0.2342611, -0.2174120, -0.2417035, -0.2978878, -0.2486058, -0.3117261, -1.0398861
C, 00, 00, 0, 0, 0, 0,  0.0292888, -0.2340613, -0.2173028, -0.2416358, -0.2977696, -0.2484680, -0.3115697, -1.0396692
C, 00, 00, 0, 0, 0, 0,  0.0292368, -0.2274680, -0.2166825, -0.2411328, -0.2972074, -0.2478676, -0.3108697, -1.0388051
C, 00, 00, 0, 0, 0, 0,  0.0293827, -0.2234788, -0.2163143, -0.2407871, -0.2968893, -0.2475305, -0.3104959, -1.0383602
C, 00, 00, 0, 0, 0, 0,  0.0292773, -0.2275830, -0.2168079, -0.2411933, -0.2973552, -0.2480226, -0.3110857, -1.0391098
C, 00, 00, 0, 0, 0, 0,  0.0294113, -0.2341256, -0.2174163, -0.2417026, -0.2978845, -0.2485690, -0.3117462, -1.0399038
C, 00, 00, 0, 0, 0, 0,  0.0294952, -0.2341414, -0.2173476, -0.2416740, -0.2978092, -0.2484756, -0.3116312, -1.0397416
C, 00, 00, 0, 0, 0, 0,  0.0293651, -0.2275734, -0.2166405, -0.2410541, -0.2971583, -0.2477713, -0.3108192, -1.0387379
C, 00, 00, 0, 0, 0, 0,  0.0294061, -0.2234469, -0.2163549, -0.2407942, -0.2969246, -0.2475338, -0.3105421, -1.0384108
C, 00, 00, 0, 0, 0, 0,  0.0293722, -0.2274184, -0.2168255, -0.2411614, -0.2973538, -0.2479930, -0.3110958, -1.0391051
C, 00, 00, 0, 0, 0, 0,  0.0294037, -0.2340226, -0.2174506, -0.2417331, -0.2979250, -0.2485924, -0.3117900, -1.0399715
C, 00, 00, 0, 0, 0, 0,  0.0294523, -0.2342110, -0.2173219, -0.2416568, -0.2977906, -0.2484331, -0.3116227, -1.0397464
C, 00, 00, 0, 0, 0, 0,  0.0293837, -0.2277203, -0.2166558, -0.2411051, -0.2971897, -0.2477975, -0.3108726, -1.0388209
C, 00, 00, 0, 0, 0, 0,  0.0294237, -0.2234230, -0.2163086, -0.2407537, -0.2968736, -0.2474795, -0.3105078, -1.0383760
C, 00, 00, 0, 0, 0, 0,  0.0294352, -0.2272229, -0.2167979, -0.2411576, -0.2973495, -0.2480002, -0.3110953, -1.0391198
C, 00, 00, 0, 0, 0, 0,  0.0294166, -0.2338515, -0.2173496, -0.2416196, -0.2978402, -0.2485032, -0.3116875, -1.0398418
C, 00, 00, 0, 0, 0, 0,  0.0294294, -0.2342282, -0.2173157, -0.2416210, -0.2977834, -0.2484474, -0.3116093, -1.0397188
C, 00, 00, 0, 0, 0, 0,  0.0293708, -0.2278075, -0.2166658, -0.2410469, -0.2971573, -0.2478009, -0.3108464, -1.0387670
C, 00, 00, 0, 0, 0, 0,  0.0294905, -0.2233777, -0.2163539, -0.2407708, -0.2968822, -0.2475462, -0.3105350, -1.0384051
C, 00, 00, 0, 0, 0, 0,  0.0296116, -0.2269860, -0.2167592, -0.2410856, -0.2972560, -0.2479453, -0.3110342, -1.0390383
C, 00, 00, 0, 0, 0, 0,  0.0296450, -0.2337060, -0.2174216, -0.2416811, -0.2978764, -0.2485943, -0.3117819, -1.0399743
C, 00, 00, 0, 0, 0, 0,  0.0295615, -0.2343040, -0.2173577, -0.2416420, -0.2977925, -0.2484732, -0.3116675, -1.0398027
C, 00, 00, 0, 0, 0, 0,  0.0293431, -0.2279506, -0.2167211, -0.2411113, -0.2971955, -0.2478376, -0.3109336, -1.0388819
C, 00, 00, 0, 0, 0, 0,  0.0291815, -0.2233439, -0.2163329, -0.2407565, -0.2968417, -0.2474771, -0.3105302, -1.0383860
C, 00, 00, 0, 0, 0, 0,  0.0295773, -0.2268138, -0.2168079, -0.2411495, -0.2972947, -0.2479739, -0.3110943, -1.0391036
C, 00, 00, 0, 0, 0, 0,  0.0297670, -0.2335511, -0.2174158, -0.2416487, -0.2978201, -0.2485180, -0.3117476, -1.0398985
C, 00, 00, 0, 0, 0, 0,  0.0294747, -0.2343302, -0.2173882, -0.2416544, -0.2977848, -0.2484746, -0.3116727, -1.0398017
C, 00, 00, 0, 0, 0, 0,  0.0292354, -0.2280832, -0.2167392, -0.2411080, -0.2971964, -0.2478509, -0.3109436, -1.0388895
C, 00, 00, 0, 0, 0, 0,  0.0294681, -0.2233482, -0.2163611, -0.2407799, -0.2968712, -0.2475257, -0.3105574, -1.0384342
C, 00, 00, 0, 0, 0, 0,  0.0296502, -0.2266159, -0.2167430, -0.2410708, -0.2972327, -0.2479182, -0.3110295, -1.0390345
C, 00, 00, 0, 0, 0, 0,  0.0296183, -0.2333861, -0.2173624, -0.2416268, -0.2978020, -0.2485123, -0.3117137, -1.0398976
C, 00, 00, 0, 0, 0, 0,  0.0294528, -0.2343922, -0.2173715, -0.2416621, -0.2977858, -0.2484689, -0.3116722, -1.0398303
C, 00, 00, 0, 0, 0, 0,  0.0294986, -0.2282357, -0.2167912, -0.2411752, -0.2972398, -0.2478967, -0.3109999, -1.0390021
C, 00, 00, 0, 0, 0, 0,  0.0295434, -0.2233348, -0.2163492, -0.2407642, -0.2968250, -0.2474881, -0.3105231, -1.0384399
C, 00, 00, 0, 0, 0, 0,  0.0295420, -0.2264381, -0.2167735, -0.2411232, -0.2972303, -0.2479372, -0.3110381, -1.0390970
C, 00, 00, 0, 0, 0, 0,  0.0294914, -0.2332292, -0.2173395, -0.2416039, -0.2977424, -0.2484722, -0.3116775, -1.0398647
C, 00, 00, 0, 0, 0, 0,  0.0295177, -0.2344184, -0.2173591, -0.2416597, -0.2977686, -0.2484908, -0.3116794, -1.0398604
C, 00, 00, 0, 0, 0, 0,  0.0296073, -0.2283416, -0.2167368, -0.2411208, -0.2971793, -0.2478552, -0.3109508, -1.0389696
C, 00, 00, 0, 0, 0, 0,  0.0295720, -0.2233396, -0.2164121, -0.2408324, -0.2968898, -0.2475653, -0.3106008, -1.0385581
C, 00, 00, 0, 0, 0, 0,  0.0294056, -0.2262578, -0.2167588, -0.2410860, -0.2972050, -0.2479143, -0.3110128, -1.0390850
C, 00, 00, 0, 0, 0, 0,  0.0294194, -0.2330823, -0.2173863, -0.2416272, -0.2977763, -0.2485352, -0.3116918, -1.0399371
C, 00, 00, 0, 0, 0, 0,  0.0295587, -0.2344737, -0.2174220, -0.2416644, -0.2977815, -0.2485218, -0.3116732, -1.0398942
C, 00, 00, 0, 0, 0, 0,  0.0296483, -0.2284942, -0.2168236, -0.2411657, -0.2972212, -0.2479229, -0.3109727, -1.0390302
C, 00, 00, 0, 0, 0, 0,  0.0297232, -0.2233253, -0.2163549, -0.2407432, -0.2968021, -0.2474957, -0.3104906, -1.0384451
C, 00, 00, 0, 0, 0, 0,  0.0297999, -0.2260618, -0.2167201, -0.2410512, -0.2971740, -0.2479058, -0.3109560, -1.0390612
C, 00, 00, 0, 0, 0, 0,  0.0295692, -0.2329321, -0.2173572, -0.2415972, -0.2977605, -0.2485066, -0.3116737, -1.0399605
C, 00, 00, 0, 0, 0, 0,  0.0295010, -0.2345367, -0.2174411, -0.2417150, -0.2978225, -0.2485652, -0.3117376, -1.0400292
C, 00, 00, 0, 0, 0, 0,  0.0295610, -0.2286706, -0.2168260, -0.2411776, -0.2972274, -0.2479310, -0.3110228, -1.0391284
C, 00, 00, 0, 0, 0, 0,  0.0295334, -0.2234087, -0.2164278, -0.2408123, -0.2968636, -0.2475653, -0.3105932, -1.0386282
C, 00, 00, 0, 0, 0, 0,  0.0295410, -0.2259388, -0.2167015, -0.2410102, -0.2971087, -0.2478304, -0.3109308, -1.0390755
C, 00, 00, 0, 0, 0, 0,  0.0295267, -0.2328263, -0.2173887, -0.2416125, -0.2977476, -0.2484889, -0.3117042, -1.0400559
C, 00, 00, 0, 0, 0, 0,  0.0296626, -0.2346163, -0.2174478, -0.2416897, -0.2977805, -0.2484927, -0.3117295, -1.0400850
C, 00, 00, 0, 0, 0, 0,  0.0295911, -0.2288590, -0.2168856, -0.2412396, -0.2972546, -0.2479344, -0.3110638, -1.0392638
C, 00, 00, 0, 0, 0, 0,  0.0294623, -0.2234183, -0.2163873, -0.2407546, -0.2967792, -0.2474566, -0.3105064, -1.0385762
C, 00, 00, 0, 0, 0, 0,  0.0295506, -0.2257715, -0.2167187, -0.2410178, -0.2971101, -0.2478376, -0.3109007, -1.0391103
C, 00, 00, 0, 0, 0, 0,  0.0297203, -0.2326374, -0.2173319, -0.2415486, -0.2976723, -0.2484174, -0.3115778, -1.0399615
C, 00, 00, 0, 0, 0, 0,  0.0296707, -0.2346192, -0.2174478, -0.2416964, -0.2977763, -0.2485147, -0.3116904, -1.0400854
C, 00, 00, 0, 0, 0, 0,  0.0294414, -0.2289806, -0.2168618, -0.2412124, -0.2972393, -0.2479358, -0.3110328, -1.0392681
C, 00, 00, 0, 0, 0, 0,  0.0295024, -0.2234621, -0.2164312, -0.2408347, -0.2968650, -0.2475624, -0.3105812, -1.0387369
C, 00, 00, 0, 0, 0, 0,  0.0296874, -0.2256313, -0.2166991, -0.2410255, -0.2971182, -0.2478419, -0.3109136, -1.0391742
C, 00, 00, 0, 0, 0, 0,  0.0296607, -0.2325206, -0.2173529, -0.2416034, -0.2977295, -0.2484780, -0.3116556, -1.0401136
C, 00, 00, 0, 0, 0, 0,  0.0295463, -0.2346683, -0.2174087, -0.2416516, -0.2977405, -0.2484732, -0.3116584, -1.0401045
C, 00, 00, 0, 0, 0, 0,  0.0294762, -0.2291365, -0.2168594, -0.2412033, -0.2972298, -0.2479320, -0.3110295, -1.0393177
C, 00, 00, 0, 0, 0, 0,  0.0294428, -0.2234926, -0.2164111, -0.2407885, -0.2968150, -0.2475124, -0.3105450, -1.0387341
C, 00, 00, 0, 0, 0, 0,  0.0295420, -0.2254887, -0.2167363, -0.2410317, -0.2971239, -0.2478662, -0.3109351, -1.0392638
C, 00, 00, 0, 0, 0, 0,  0.0297518, -0.2323556, -0.2173529, -0.2415519, -0.2976780, -0.2484436, -0.3116212, -1.0401317
C, 00, 00, 0, 0, 0, 0,  0.0298471, -0.2346974, -0.2174683, -0.2416849, -0.2977710, -0.2485242, -0.3117013, -1.0402447
C, 00, 00, 0, 0, 0, 0,  0.0296183, -0.2292757, -0.2168770, -0.2411828, -0.2972050, -0.2479153, -0.3110047, -1.0393864
C, 00, 00, 0, 0, 0, 0,  0.0294085, -0.2235303, -0.2164440, -0.2408161, -0.2968417, -0.2475510, -0.3105646, -1.0388728
C, 00, 00, 0, 0, 0, 0,  0.0293937, -0.2253232, -0.2166753, -0.2409859, -0.2970767, -0.2478056, -0.3108702, -1.0392720
C, 00, 00, 0, 0, 0, 0,  0.0296421, -0.2321797, -0.2173300, -0.2415614, -0.2976709, -0.2484365, -0.3116002, -1.0401889
C, 00, 00, 0, 0, 0, 0,  0.0298386, -0.2347226, -0.2174812, -0.2416992, -0.2977791, -0.2485466, -0.3117271, -1.0403239
C, 00, 00, 0, 0, 0, 0,  0.0297570, -0.2294426, -0.2169400, -0.2412596, -0.2972751, -0.2480130, -0.3110896, -1.0395414
C, 00, 00, 0, 0, 0, 0,  0.0295763, -0.2235742, -0.2164278, -0.2407871, -0.2968159, -0.2475295, -0.3105555, -1.0388795
C, 00, 00, 0, 0, 0, 0,  0.0296569, -0.2251563, -0.2166662, -0.2409697, -0.2970491, -0.2478171, -0.3108631, -1.0393001
C, 00, 00, 0, 0, 0, 0,  0.0297456, -0.2319975, -0.2172914, -0.2414980, -0.2976036, -0.2483983, -0.3115459, -1.0401713
C, 00, 00, 0, 0, 0, 0,  0.0296955, -0.2347236, -0.2175031, -0.2417188, -0.2977844, -0.2485528, -0.3117390, -1.0404154
C, 00, 00, 0, 0, 0, 0,  0.0296259, -0.2295890, -0.2169662, -0.2412725, -0.2972870, -0.2479987, -0.3111153, -1.0396439
C, 00, 00, 0, 0, 0, 0,  0.0296836, -0.2236305, -0.2164750, -0.2408700, -0.2968641, -0.2475519, -0.3106032, -1.0390340
C, 00, 00, 0, 0, 0, 0,  0.0296869, -0.2250257, -0.2166524, -0.2409864, -0.2970367, -0.2477527, -0.3108564, -1.0393482
C, 00, 00, 0, 0, 0, 0,  0.0297146, -0.2318487, -0.2172976, -0.2415424, -0.2976299, -0.2483850, -0.3115888, -1.0402504
C, 00, 00, 0, 0, 0, 0,  0.0295963, -0.2347722, -0.2174759, -0.2417288, -0.2977882, -0.2485309, -0.3117657, -1.0404450
C, 00, 00, 0, 0, 0, 0,  0.0296741, -0.2297769, -0.2169762, -0.2413249, -0.2973218, -0.2480541, -0.3111897, -1.0397159
C, 00, 00, 0, 0, 0, 0,  0.0296125, -0.2237072, -0.2164150, -0.2408109, -0.2967921, -0.2475210, -0.3105827, -1.0389630
C, 00, 00, 0, 0, 0, 0,  0.0296159, -0.2248974, -0.2166124, -0.2409616, -0.2969928, -0.2477560, -0.3108526, -1.0393235
C, 00, 00, 0, 0, 0, 0,  0.0295472, -0.2317095, -0.2172733, -0.2415138, -0.2975750, -0.2483831, -0.3115936, -1.0402414
C, 00, 00, 0, 0, 0, 0,  0.0295401, -0.2348166, -0.2175217, -0.2417455, -0.2977710, -0.2485843, -0.3118153, -1.0405141
C, 00, 00, 0, 0, 0, 0,  0.0296431, -0.2299176, -0.2169295, -0.2412362, -0.2971979, -0.2479649, -0.3111239, -1.0396444
C, 00, 00, 0, 0, 0, 0,  0.0295525, -0.2237435, -0.2164002, -0.2407751, -0.2967296, -0.2474757, -0.3105607, -1.0389720
C, 00, 00, 0, 0, 0, 0,  0.0295224, -0.2247258, -0.2165633, -0.2408648, -0.2968808, -0.2476540, -0.3107772, -1.0392710
C, 00, 00, 0, 0, 0, 0,  0.0295324, -0.2315049, -0.2172432, -0.2414575, -0.2975083, -0.2483387, -0.3115530, -1.0402528
C, 00, 00, 0, 0, 0, 0,  0.0297990, -0.2347856, -0.2174621, -0.2416592, -0.2976847, -0.2485361, -0.3117619, -1.0405074
C, 00, 00, 0, 0, 0, 0,  0.0297451, -0.2300558, -0.2169581, -0.2412424, -0.2971955, -0.2480302, -0.3111530, -1.0397521
C, 00, 00, 0, 0, 0, 0,  0.0296783, -0.2237931, -0.2163954, -0.2407193, -0.2966628, -0.2474690, -0.3105197, -1.0389730
C, 00, 00, 0, 0, 0, 0,  0.0300484, -0.2245899, -0.2165895, -0.2408753, -0.2968674, -0.2476998, -0.3107858, -1.0393235
C, 00, 00, 0, 0, 0, 0,  0.0298524, -0.2313175, -0.2172132, -0.2414160, -0.2974329, -0.2483092, -0.3115096, -1.0402056
C, 00, 00, 0, 0, 0, 0,  0.0297918, -0.2347870, -0.2175098, -0.2417240, -0.2977028, -0.2485972, -0.3118186, -1.0405718
C, 00, 00, 0, 0, 0, 0,  0.0298076, -0.2302141, -0.2169843, -0.2412920, -0.2972203, -0.2480817, -0.3112092, -1.0397989
C, 00, 00, 0, 0, 0, 0,  0.0299978, -0.2238918, -0.2164417, -0.2408314, -0.2967353, -0.2475891, -0.3106261, -1.0390927
C, 00, 00, 0, 0, 0, 0,  0.0300922, -0.2244764, -0.2165261, -0.2408777, -0.2968135, -0.2477017, -0.3107553, -1.0392796
C, 00, 00, 0, 0, 0, 0,  0.0299449, -0.2311898, -0.2172146, -0.2414956, -0.2974568, -0.2484064, -0.3115530, -1.0402795
C, 00, 00, 0, 0, 0, 0,  0.0298162, -0.2348142, -0.2174492, -0.2417126, -0.2976399, -0.2485929, -0.3117824, -1.0405475
C, 00, 00, 0, 0, 0, 0,  0.0298119, -0.2303667, -0.2169590, -0.2413101, -0.2971659, -0.2480932, -0.3111892, -1.0398051
C, 00, 00, 0, 0, 0, 0,  0.0300431, -0.2239576, -0.2163682, -0.2407818, -0.2966190, -0.2475291, -0.3105369, -1.0390040
C, 00, 00, 0, 0, 0, 0,  0.0301213, -0.2243805, -0.2165704, -0.2409344, -0.2968269, -0.2477641, -0.3108068, -1.0393769
C, 00, 00, 0, 0, 0, 0,  0.0300531, -0.2310338, -0.2172027, -0.2414632, -0.2974105, -0.2483549, -0.3115182, -1.0402795
C, 00, 00, 0, 0, 0, 0,  0.0299859, -0.2348304, -0.2174859, -0.2417398, -0.2976656, -0.2486210, -0.3118191, -1.0406429
C, 00, 00, 0, 0, 0, 0,  0.0300770, -0.2305231, -0.2169485, -0.2412710, -0.2971378, -0.2480727, -0.3111811, -1.0398408
C, 00, 00, 0, 0, 0, 0,  0.0299954, -0.2240305, -0.2163863, -0.2407790, -0.2966314, -0.2475529, -0.3105741, -1.0390984
C, 00, 00, 0, 0, 0, 0,  0.0297804, -0.2242227, -0.2164774, -0.2408176, -0.2967320, -0.2476673, -0.3107176, -1.0393010
C, 00, 00, 0, 0, 0, 0,  0.0300999, -0.2308388, -0.2171760, -0.2414332, -0.2974010, -0.2483836, -0.3115220, -1.0403181
C, 00, 00, 0, 0, 0, 0,  0.0300574, -0.2347703, -0.2174301, -0.2416573, -0.2976075, -0.2485757, -0.3117605, -1.0406076
C, 00, 00, 0, 0, 0, 0,  0.0299945, -0.2306600, -0.2170153, -0.2413392, -0.2972141, -0.2481470, -0.3112693, -1.0399820
C, 00, 00, 0, 0, 0, 0,  0.0301647, -0.2240978, -0.2163873, -0.2407680, -0.2966161, -0.2475267, -0.3105517, -1.0391070
C, 00, 00, 0, 0, 0, 0,  0.0303130, -0.2240978, -0.2165051, -0.2408519, -0.2967492, -0.2476774, -0.3107200, -1.0393564
C, 00, 00, 0, 0, 0, 0,  0.0301557, -0.2306462, -0.2171316, -0.2413879, -0.2973466, -0.2482791, -0.3114510, -1.0402728
C, 00, 00, 0, 0, 0, 0,  0.0301352, -0.2347441, -0.2174306, -0.2416926, -0.2976103, -0.2485466, -0.3117695, -1.0406586
C, 00, 00, 0, 0, 0, 0,  0.0299735, -0.2307601, -0.2169566, -0.2413054, -0.2971468, -0.2480574, -0.3112097, -1.0399424
C, 00, 00, 0, 0, 0, 0,  0.0300736, -0.2241903, -0.2164483, -0.2408653, -0.2966805, -0.2476077, -0.3106532, -1.0392386
C, 00, 00, 0, 0, 0, 0,  0.0299888, -0.2240000, -0.2165051, -0.2408757, -0.2967511, -0.2476921, -0.3107639, -1.0393874
C, 00, 00, 0, 0, 0, 0,  0.0300942, -0.2304883, -0.2171641, -0.2414475, -0.2973709, -0.2483573, -0.3115125, -1.0403458
C, 00, 00, 0, 0, 0, 0,  0.0301399, -0.2347579, -0.2174864, -0.2417136, -0.2976294, -0.2486072, -0.3118039, -1.0407063
C, 00, 00, 0, 0, 0, 0,  0.0302215, -0.2309685, -0.2170749, -0.2414084, -0.2972508, -0.2482143, -0.3113165, -1.0400945
C, 00, 00, 0, 0, 0, 0,  0.0301333, -0.2243109, -0.2164412, -0.2408510, -0.2966690, -0.2476044, -0.3106127, -1.0392195
C, 00, 00, 0, 0, 0, 0,  0.0301528, -0.2239003, -0.2164879, -0.2408786, -0.2967439, -0.2476831, -0.3107210, -1.0393578
C, 00, 00, 0, 0, 0, 0,  0.0304575, -0.2303038, -0.2171107, -0.2413936, -0.2973280, -0.2482744, -0.3114529, -1.0402600
C, 00, 00, 0, 0, 0, 0,  0.0304112, -0.2347403, -0.2174816, -0.2417350, -0.2976594, -0.2486177, -0.3118396, -1.0407358
C, 00, 00, 0, 0, 0, 0,  0.0302544, -0.2311058, -0.2170282, -0.2413512, -0.2972265, -0.2481528, -0.3113017, -1.0400525
C, 00, 00, 0, 0, 0, 0,  0.0300260, -0.2244096, -0.2164440, -0.2408605, -0.2966957, -0.2476006, -0.3106552, -1.0392591
C, 00, 00, 0, 0, 0, 0,  0.0299087, -0.2237783, -0.2164259, -0.2407980, -0.2966781, -0.2475844, -0.3106575, -1.0392877
C, 00, 00, 0, 0, 0, 0,  0.0301886, -0.2300873, -0.2170668, -0.2413478, -0.2972813, -0.2482205, -0.3113957, -1.0402190
C, 00, 00, 0, 0, 0, 0,  0.0305142, -0.2346521, -0.2174049, -0.2416435, -0.2975707, -0.2485056, -0.3117404, -1.0406429
C, 00, 00, 0, 0, 0, 0,  0.0302868, -0.2311998, -0.2170434, -0.2413612, -0.2972374, -0.2481480, -0.3113065, -1.0401093
C, 00, 00, 0, 0, 0, 0,  0.0299282, -0.2244344, -0.2163797, -0.2407623, -0.2966247, -0.2475071, -0.3105789, -1.0392076
C, 00, 00, 0, 0, 0, 0,  0.0298958, -0.2236481, -0.2164407, -0.2407861, -0.2967077, -0.2476144, -0.3107047, -1.0393769
C, 00, 00, 0, 0, 0, 0,  0.0302243, -0.2298661, -0.2170339, -0.2412577, -0.2972346, -0.2481666, -0.3113671, -1.0401975
C, 00, 00, 0, 0, 0, 0,  0.0302067, -0.2346020, -0.2174511, -0.2416578, -0.2976032, -0.2485471, -0.3117972, -1.0407335
C, 00, 00, 0, 0, 0, 0,  0.0300813, -0.2312889, -0.2170091, -0.2412873, -0.2971607, -0.2480693, -0.3112512, -1.0400401
C, 00, 00, 0, 0, 0, 0,  0.0302010, -0.2244959, -0.2164030, -0.2407875, -0.2966047, -0.2475114, -0.3105922, -1.0392267
C, 00, 00, 0, 0, 0, 0,  0.0303178, -0.2234941, -0.2163763, -0.2407294, -0.2965875, -0.2475100, -0.3106056, -1.0392572
C, 00, 00, 0, 0, 0, 0,  0.0304680, -0.2296448, -0.2170224, -0.2412892, -0.2971931, -0.2481518, -0.3113389, -1.0402008
C, 00, 00, 0, 0, 0, 0,  0.0305381, -0.2344995, -0.2173887, -0.2416272, -0.2975116, -0.2484761, -0.3117147, -1.0406681
C, 00, 00, 0, 0, 0, 0,  0.0302186, -0.2314043, -0.2170863, -0.2413974, -0.2972207, -0.2481695, -0.3113370, -1.0401880
C, 00, 00, 0, 0, 0, 0,  0.0301938, -0.2245913, -0.2164560, -0.2408262, -0.2966214, -0.2475472, -0.3106208, -1.0393029
C, 00, 00, 0, 0, 0, 0,  0.0303345, -0.2233920, -0.2164397, -0.2407913, -0.2966214, -0.2475677, -0.3106261, -1.0393449
C, 00, 00, 0, 0, 0, 0,  0.0302930, -0.2294417, -0.2170201, -0.2412653, -0.2971530, -0.2481308, -0.3112803, -1.0401794
C, 00, 00, 0, 0, 0, 0,  0.0304909, -0.2344408, -0.2174459, -0.2416692, -0.2975278, -0.2485328, -0.3117381, -1.0407459
C, 00, 00, 0, 0, 0, 0,  0.0303259, -0.2314968, -0.2170716, -0.2413554, -0.2971487, -0.2481132, -0.3112650, -1.0401431
C, 00, 00, 0, 0, 0, 0,  0.0302277, -0.2246595, -0.2164703, -0.2408428, -0.2966023, -0.2475391, -0.3106056, -1.0393225
C, 00, 00, 0, 0, 0, 0,  0.0302949, -0.2232638, -0.2164073, -0.2407537, -0.2965603, -0.2475052, -0.3105889, -1.0393010
C, 00, 00, 0, 0, 0, 0,  0.0302496, -0.2292519, -0.2170759, -0.2413197, -0.2971874, -0.2481671, -0.3113618, -1.0402666
C, 00, 00, 0, 0, 0, 0,  0.0303874, -0.2343750, -0.2174630, -0.2416549, -0.2975154, -0.2484937, -0.3117485, -1.0407358
C, 00, 00, 0, 0, 0, 0,  0.0301399, -0.2316408, -0.2171645, -0.2414470, -0.2972474, -0.2481957, -0.3114000, -1.0402886
C, 00, 00, 0, 0, 0, 0,  0.0302501, -0.2247963, -0.2165160, -0.2408777, -0.2966419, -0.2475677, -0.3106771, -1.0393812
C, 00, 00, 0, 0, 0, 0,  0.0304642, -0.2232251, -0.2164884, -0.2408228, -0.2966204, -0.2475782, -0.3106742, -1.0394117
C, 00, 00, 0, 0, 0, 0,  0.0304403, -0.2290721, -0.2170306, -0.2412358, -0.2971049, -0.2481013, -0.3112760, -1.0401970
C, 00, 00, 0, 0, 0, 0,  0.0305824, -0.2343364, -0.2174931, -0.2416458, -0.2975250, -0.2485299, -0.3117614, -1.0408002
C, 00, 00, 0, 0, 0, 0,  0.0302868, -0.2317734, -0.2171765, -0.2413845, -0.2972088, -0.2481704, -0.3113504, -1.0402805
C, 00, 00, 0, 0, 0, 0,  0.0302486, -0.2248965, -0.2165489, -0.2408548, -0.2966266, -0.2475615, -0.3106308, -1.0393993
C, 00, 00, 0, 0, 0, 0,  0.0306292, -0.2231140, -0.2164436, -0.2407255, -0.2965222, -0.2474733, -0.3105398, -1.0393244
C, 00, 00, 0, 0, 0, 0,  0.0306349, -0.2288766, -0.2170644, -0.2412682, -0.2970987, -0.2481065, -0.3112545, -1.0402471
C, 00, 00, 0, 0, 0, 0,  0.0304661, -0.2342744, -0.2175079, -0.2416721, -0.2975006, -0.2485047, -0.3117285, -1.0408269
C, 00, 00, 0, 0, 0, 0,  0.0304894, -0.2318831, -0.2171879, -0.2414441, -0.2971988, -0.2481804, -0.3113337, -1.0403348
C, 00, 00, 0, 0, 0, 0,  0.0303688, -0.2249823, -0.2165075, -0.2408548, -0.2965722, -0.2475114, -0.3105717, -1.0394021
C, 00, 00, 0, 0, 0, 0,  0.0303998, -0.2230215, -0.2164393, -0.2407856, -0.2965384, -0.2474871, -0.3105383, -1.0394007
C, 00, 00, 0, 0, 0, 0,  0.0305061, -0.2286730, -0.2169953, -0.2412486, -0.2970591, -0.2480388, -0.3111916, -1.0402318
C, 00, 00, 0, 0, 0, 0,  0.0303931, -0.2342129, -0.2174993, -0.2417307, -0.2975164, -0.2485304, -0.3117452, -1.0409209
C, 00, 00, 0, 0, 0, 0,  0.0301890, -0.2320032, -0.2171541, -0.2414613, -0.2971740, -0.2481551, -0.3113161, -1.0403911
C, 00, 00, 0, 0, 0, 0,  0.0303226, -0.2251330, -0.2165642, -0.2409606, -0.2966385, -0.2475992, -0.3106561, -1.0395919
C, 00, 00, 0, 0, 0, 0,  0.0303416, -0.2229619, -0.2164278, -0.2407761, -0.2964983, -0.2474680, -0.3105069, -1.0394503
C, 00, 00, 0, 0, 0, 0,  0.0303140, -0.2284951, -0.2170353, -0.2412796, -0.2970610, -0.2480750, -0.3112035, -1.0403415
C, 00, 00, 0, 0, 0, 0,  0.0305729, -0.2341309, -0.2174897, -0.2416830, -0.2974801, -0.2485051, -0.3117133, -1.0409662
C, 00, 00, 0, 0, 0, 0,  0.0306220, -0.2321167, -0.2172036, -0.2414589, -0.2972122, -0.2482024, -0.3113575, -1.0405217
C, 00, 00, 0, 0, 0, 0,  0.0304713, -0.2252126, -0.2165275, -0.2408457, -0.2965818, -0.2475338, -0.3105932, -1.0395867
C, 00, 00, 0, 0, 0, 0,  0.0305996, -0.2228704, -0.2164359, -0.2407403, -0.2965207, -0.2475071, -0.3105326, -1.0395576
C, 00, 00, 0, 0, 0, 0,  0.0305228, -0.2282987, -0.2170182, -0.2411967, -0.2970457, -0.2480769, -0.3111973, -1.0403940
C, 00, 00, 0, 0, 0, 0,  0.0304036, -0.2340365, -0.2175236, -0.2416539, -0.2974902, -0.2485400, -0.3117099, -1.0410496
C, 00, 00, 0, 0, 0, 0,  0.0305676, -0.2322040, -0.2172323, -0.2414236, -0.2972036, -0.2482267, -0.3113318, -1.0405833
C, 00, 00, 0, 0, 0, 0,  0.0305705, -0.2253566, -0.2166395, -0.2409277, -0.2966729, -0.2476821, -0.3106828, -1.0397812
C, 00, 00, 0, 0, 0, 0,  0.0303531, -0.2228365, -0.2164564, -0.2407465, -0.2965241, -0.2475481, -0.3105455, -1.0396134
C, 00, 00, 0, 0, 0, 0,  0.0305481, -0.2281370, -0.2170334, -0.2412410, -0.2970677, -0.2481423, -0.3112336, -1.0404793
C, 00, 00, 0, 0, 0, 0,  0.0305424, -0.2339978, -0.2175093, -0.2416458, -0.2974849, -0.2485657, -0.3117371, -1.0411087
C, 00, 00, 0, 0, 0, 0,  0.0304418, -0.2323933, -0.2173019, -0.2414923, -0.2972789, -0.2483263, -0.3114519, -1.0407573
C, 00, 00, 0, 0, 0, 0,  0.0305018, -0.2255292, -0.2166400, -0.2409001, -0.2966462, -0.2476459, -0.3106904, -1.0398022
C, 00, 00, 0, 0, 0, 0,  0.0305257, -0.2228074, -0.2164636, -0.2407356, -0.2965150, -0.2475186, -0.3105359, -1.0396415
C, 00, 00, 0, 0, 0, 0,  0.0305629, -0.2279716, -0.2169900, -0.2411733, -0.2970181, -0.2480498, -0.3111620, -1.0404488
C, 00, 00, 0, 0, 0, 0,  0.0305500, -0.2339211, -0.2175021, -0.2416520, -0.2974797, -0.2485347, -0.3117261, -1.0411521
C, 00, 00, 0, 0, 0, 0,  0.0305214, -0.2324958, -0.2172632, -0.2414832, -0.2972474, -0.2482834, -0.3114276, -1.0407673
C, 00, 00, 0, 0, 0, 0,  0.0304055, -0.2256475, -0.2166348, -0.2409520, -0.2966552, -0.2476807, -0.3106981, -1.0398833
C, 00, 00, 0, 0, 0, 0,  0.0302081, -0.2227583, -0.2164445, -0.2407580, -0.2964840, -0.2475219, -0.3105283, -1.0396940
C, 00, 00, 0, 0, 0, 0,  0.0304070, -0.2278037, -0.2170024, -0.2412224, -0.2970181, -0.2480951, -0.3111873, -1.0405499
C, 00, 00, 0, 0, 0, 0,  0.0306330, -0.2338395, -0.2174611, -0.2416325, -0.2974377, -0.2485118, -0.3116746, -1.0411693
C, 00, 00, 0, 0, 0, 0,  0.0307474, -0.2326212, -0.2172952, -0.2415209, -0.2972794, -0.2483506, -0.3114505, -1.0408937
C, 00, 00, 0, 0, 0, 0,  0.0304542, -0.2257862, -0.2165900, -0.2409034, -0.2966185, -0.2476588, -0.3106480, -1.0399138
C, 00, 00, 0, 0, 0, 0,  0.0303001, -0.2227054, -0.2164197, -0.2407437, -0.2964759, -0.2475224, -0.3104849, -1.0397583
C, 00, 00, 0, 0, 0, 0,  0.0306387, -0.2276116, -0.2169566, -0.2411838, -0.2969795, -0.2480593, -0.3111267, -1.0405670
C, 00, 00, 0, 0, 0, 0,  0.0308161, -0.2337747, -0.2175274, -0.2417097, -0.2975016, -0.2486186, -0.3117557, -1.0413538
C, 00, 00, 0, 0, 0, 0,  0.0304856, -0.2327404, -0.2173205, -0.2415490, -0.2972803, -0.2483778, -0.3114767, -1.0409957
C, 00, 00, 0, 0, 0, 0,  0.0305357, -0.2259608, -0.2166839, -0.2410112, -0.2967000, -0.2477746, -0.3107605, -1.0401183
C, 00, 00, 0, 0, 0, 0,  0.0308118, -0.2226854, -0.2163811, -0.2407346, -0.2964421, -0.2475186, -0.3104682, -1.0397826
C, 00, 00, 0, 0, 0, 0,  0.0306945, -0.2274261, -0.2168947, -0.2411900, -0.2969456, -0.2480746, -0.3110881, -1.0405833
C, 00, 00, 0, 0, 0, 0,  0.0303593, -0.2336550, -0.2174144, -0.2416377, -0.2974124, -0.2485500, -0.3116618, -1.0412871
C, 00, 00, 0, 0, 0, 0,  0.0305867, -0.2328439, -0.2172771, -0.2415757, -0.2973109, -0.2484265, -0.3115039, -1.0410796
C, 00, 00, 0, 0, 0, 0,  0.0305758, -0.2260943, -0.2165957, -0.2409921, -0.2966876, -0.2477594, -0.3107510, -1.0401217
C, 00, 00, 0, 0, 0, 0,  0.0305719, -0.2226539, -0.2163620, -0.2407761, -0.2964812, -0.2475486, -0.3105154, -1.0398585
C, 00, 00, 0, 0, 0, 0,  0.0308924, -0.2272539, -0.2168660, -0.2411809, -0.2969437, -0.2480417, -0.3111034, -1.0406019
C, 00, 00, 0, 0, 0, 0,  0.0309053, -0.2335868, -0.2174487, -0.2417069, -0.2974735, -0.2486039, -0.3117347, -1.0413791
C, 00, 00, 0, 0, 0, 0,  0.0308347, -0.2329278, -0.2172179, -0.2415319, -0.2972451, -0.2483387, -0.3114329, -1.0409843
C, 00, 00, 0, 0, 0, 0,  0.0305734, -0.2262011, -0.2165804, -0.2409997, -0.2966576, -0.2477269, -0.3107148, -1.0400935
C, 00, 00, 0, 0, 0, 0,  0.0306335, -0.2225919, -0.2162915, -0.2407265, -0.2964063, -0.2474752, -0.3104387, -1.0397750
C, 00, 00, 0, 0, 0, 0,  0.0308490, -0.2270317, -0.2167893, -0.2411604, -0.2968951, -0.2479949, -0.3110509, -1.0405570
C, 00, 00, 0, 0, 0, 0,  0.0306406, -0.2334161, -0.2173243, -0.2416182, -0.2973690, -0.2484794, -0.3116384, -1.0412704
C, 00, 00, 0, 0, 0, 0,  0.0305510, -0.2329870, -0.2172170, -0.2415543, -0.2972579, -0.2483540, -0.3114744, -1.0410458
C, 00, 00, 0, 0, 0, 0,  0.0306697, -0.2263217, -0.2165480, -0.2409630, -0.2966252, -0.2476936, -0.3107124, -1.0400850
C, 00, 00, 0, 0, 0, 0,  0.0307579, -0.2225743, -0.2163172, -0.2407561, -0.2964373, -0.2475267, -0.3105183, -1.0398480
C, 00, 00, 0, 0, 0, 0,  0.0307937, -0.2268606, -0.2167506, -0.2410956, -0.2968331, -0.2479525, -0.3110319, -1.0405012
C, 00, 00, 0, 0, 0, 0,  0.0307407, -0.2333436, -0.2173672, -0.2416582, -0.2974186, -0.2485543, -0.3117257, -1.0413686
C, 00, 00, 0, 0, 0, 0,  0.0307655, -0.2331133, -0.2172170, -0.2415438, -0.2972708, -0.2483731, -0.3115330, -1.0410949
C, 00, 00, 0, 0, 0, 0,  0.0308147, -0.2264877, -0.2165551, -0.2409773, -0.2966709, -0.2477465, -0.3107839, -1.0401608
C, 00, 00, 0, 0, 0, 0,  0.0308018, -0.2225418, -0.2162466, -0.2406631, -0.2963906, -0.2474604, -0.3104692, -1.0397779
C, 00, 00, 0, 0, 0, 0,  0.0307164, -0.2266999, -0.2167683, -0.2411022, -0.2968889, -0.2480026, -0.3110977, -1.0405704
C, 00, 00, 0, 0, 0, 0,  0.0308180, -0.2332149, -0.2172976, -0.2415533, -0.2973600, -0.2484885, -0.3116637, -1.0412594
C, 00, 00, 0, 0, 0, 0,  0.0308943, -0.2331848, -0.2172156, -0.2415352, -0.2972851, -0.2483926, -0.3115316, -1.0410906
C, 00, 00, 0, 0, 0, 0,  0.0310178, -0.2266622, -0.2165756, -0.2409897, -0.2966924, -0.2477694, -0.3108130, -1.0401980
C, 00, 00, 0, 0, 0, 0,  0.0308671, -0.2225809, -0.2162905, -0.2407389, -0.2964564, -0.2475591, -0.3105431, -1.0398966
C, 00, 00, 0, 0, 0, 0,  0.0308127, -0.2265549, -0.2167006, -0.2410894, -0.2968426, -0.2479773, -0.3110395, -1.0405370
C, 00, 00, 0, 0, 0, 0,  0.0308962, -0.2331548, -0.2173071, -0.2416487, -0.2974010, -0.2485466, -0.3116994, -1.0413710
C, 00, 00, 0, 0, 0, 0,  0.0307336, -0.2333026, -0.2171951, -0.2415419, -0.2972532, -0.2483640, -0.3114982, -1.0410954
C, 00, 00, 0, 0, 0, 0,  0.0304799, -0.2268396, -0.2166162, -0.2410446, -0.2967253, -0.2477985, -0.3108368, -1.0402647
C, 00, 00, 0, 0, 0, 0,  0.0306158, -0.2225871, -0.2162628, -0.2407022, -0.2964235, -0.2474780, -0.3104983, -1.0398513
C, 00, 00, 0, 0, 0, 0,  0.0309796, -0.2263971, -0.2167182, -0.2410741, -0.2968626, -0.2479425, -0.3110361, -1.0405575
C, 00, 00, 0, 0, 0, 0,  0.0309196, -0.2330237, -0.2172671, -0.2415223, -0.2973500, -0.2484441, -0.3116222, -1.0412861
C, 00, 00, 0, 0, 0, 0,  0.0310431, -0.2334128, -0.2172852, -0.2415386, -0.2973423, -0.2484212, -0.3115888, -1.0412165
C, 00, 00, 0, 0, 0, 0,  0.0311985, -0.2270012, -0.2166515, -0.2409787, -0.2967353, -0.2477823, -0.3108473, -1.0402809
C, 00, 00, 0, 0, 0, 0,  0.0308566, -0.2226014, -0.2163434, -0.2407055, -0.2964664, -0.2475176, -0.3105369, -1.0399166
C, 00, 00, 0, 0, 0, 0,  0.0309129, -0.2262392, -0.2167363, -0.2410274, -0.2968316, -0.2479120, -0.3110228, -1.0405237
C, 00, 00, 0, 0, 0, 0,  0.0310216, -0.2329393, -0.2173577, -0.2415824, -0.2974077, -0.2485066, -0.3117180, -1.0413877
C, 00, 00, 0, 0, 0, 0,  0.0309835, -0.2334771, -0.2172585, -0.2414947, -0.2972789, -0.2483454, -0.3115554, -1.0411621
C, 00, 00, 0, 0, 0, 0,  0.0307984, -0.2271314, -0.2166457, -0.2409921, -0.2967215, -0.2477513, -0.3108631, -1.0403010
C, 00, 00, 0, 0, 0, 0,  0.0306120, -0.2225766, -0.2163034, -0.2406602, -0.2964096, -0.2474366, -0.3105088, -1.0398690
C, 00, 00, 0, 0, 0, 0,  0.0308194, -0.2260618, -0.2167444, -0.2410302, -0.2968393, -0.2479048, -0.3110452, -1.0405685
C, 00, 00, 0, 0, 0, 0,  0.0310879, -0.2327981, -0.2173243, -0.2415328, -0.2973543, -0.2484365, -0.3116808, -1.0413605
C, 00, 00, 0, 0, 0, 0,  0.0309815, -0.2335592, -0.2172990, -0.2415395, -0.2973171, -0.2483917, -0.3116007, -1.0412628
C, 00, 00, 0, 0, 0, 0,  0.0308218, -0.2272949, -0.2166505, -0.2409945, -0.2967205, -0.2477851, -0.3108745, -1.0403615
C, 00, 00, 0, 0, 0, 0,  0.0308332, -0.2225642, -0.2162724, -0.2406631, -0.2963992, -0.2474795, -0.3104897, -1.0399147
C, 00, 00, 0, 0, 0, 0,  0.0308147, -0.2258511, -0.2166481, -0.2409363, -0.2967544, -0.2478462, -0.3109370, -1.0404764
C, 00, 00, 0, 0, 0, 0,  0.0309200, -0.2326522, -0.2173267, -0.2415438, -0.2973934, -0.2484989, -0.3117032, -1.0414301
C, 00, 00, 0, 0, 0, 0,  0.0308409, -0.2336188, -0.2173133, -0.2415462, -0.2973462, -0.2484236, -0.3116327, -1.0413133
C, 00, 00, 0, 0, 0, 0,  0.0307879, -0.2274518, -0.2167130, -0.2410598, -0.2967835, -0.2478285, -0.3109427, -1.0404464
C, 00, 00, 0, 0, 0, 0,  0.0308542, -0.2225657, -0.2162528, -0.2406373, -0.2963648, -0.2474017, -0.3104644, -1.0398632
C, 00, 00, 0, 0, 0, 0,  0.0309105, -0.2256828, -0.2166553, -0.2409735, -0.2967568, -0.2478319, -0.3109522, -1.0404917
C, 00, 00, 0, 0, 0, 0,  0.0307493, -0.2325020, -0.2172957, -0.2415180, -0.2973333, -0.2484393, -0.3116508, -1.0413586
C, 00, 00, 0, 0, 0, 0,  0.0308104, -0.2336846, -0.2173410, -0.2415986, -0.2973647, -0.2484699, -0.3116656, -1.0413619
C, 00, 00, 0, 0, 0, 0,  0.0309053, -0.2275977, -0.2166968, -0.2410498, -0.2967482, -0.2478247, -0.3109227, -1.0404111
C, 00, 00, 0, 0, 0, 0,  0.0310044, -0.2225857, -0.2162895, -0.2406888, -0.2963701, -0.2474547, -0.3104883, -1.0398914
C, 00, 00, 0, 0, 0, 0,  0.0311108, -0.2255054, -0.2166090, -0.2409301, -0.2966805, -0.2477794, -0.3108802, -1.0404116
C, 00, 00, 0, 0, 0, 0,  0.0310569, -0.2323375, -0.2172570, -0.2415142, -0.2972927, -0.2484236, -0.3116179, -1.0413305
C, 00, 00, 0, 0, 0, 0,  0.0307660, -0.2337098, -0.2172814, -0.2415643, -0.2973004, -0.2484212, -0.3116188, -1.0413305
C, 00, 00, 0, 0, 0, 0,  0.0307145, -0.2277108, -0.2166815, -0.2410617, -0.2967425, -0.2478433, -0.3109270, -1.0404669
C, 00, 00, 0, 0, 0, 0,  0.0307732, -0.2225666, -0.2162571, -0.2406502, -0.2963457, -0.2474289, -0.3104635, -1.0399085
C, 00, 00, 0, 0, 0, 0,  0.0310125, -0.2253423, -0.2166634, -0.2409916, -0.2967453, -0.2478509, -0.3109532, -1.0405575
C, 00, 00, 0, 0, 0, 0,  0.0310926, -0.2321840, -0.2172442, -0.2415023, -0.2972818, -0.2483945, -0.3116002, -1.0413739
C, 00, 00, 0, 0, 0, 0,  0.0309897, -0.2337652, -0.2173448, -0.2416487, -0.2973786, -0.2484746, -0.3116846, -1.0414654
C, 00, 00, 0, 0, 0, 0,  0.0309243, -0.2278786, -0.2167297, -0.2411061, -0.2967973, -0.2478476, -0.3109784, -1.0405713
C, 00, 00, 0, 0, 0, 0,  0.0308309, -0.2226277, -0.2163272, -0.2407289, -0.2964349, -0.2474699, -0.3105383, -1.0400668
C, 00, 00, 0, 0, 0, 0,  0.0309401, -0.2251816, -0.2166071, -0.2409115, -0.2966795, -0.2477451, -0.3108583, -1.0405184
C, 00, 00, 0, 0, 0, 0,  0.0309057, -0.2320504, -0.2172842, -0.2414952, -0.2972827, -0.2484045, -0.3115936, -1.0414587
C, 00, 00, 0, 0, 0, 0,  0.0308318, -0.2338200, -0.2173753, -0.2415781, -0.2973323, -0.2484546, -0.3116393, -1.0415140
C, 00, 00, 0, 0, 0, 0,  0.0308814, -0.2280507, -0.2168198, -0.2411118, -0.2968140, -0.2479120, -0.3109966, -1.0407053
C, 00, 00, 0, 0, 0, 0,  0.0309095, -0.2226529, -0.2163606, -0.2406659, -0.2963853, -0.2474652, -0.3105030, -1.0400921
C, 00, 00, 0, 0, 0, 0,  0.0310082, -0.2250581, -0.2167025, -0.2409311, -0.2967263, -0.2478390, -0.3109246, -1.0406462
C, 00, 00, 0, 0, 0, 0,  0.0310526, -0.2319355, -0.2173047, -0.2414413, -0.2972908, -0.2484126, -0.3116146, -1.0414969
C, 00, 00, 0, 0, 0, 0,  0.0309687, -0.2338915, -0.2174177, -0.2415724, -0.2973919, -0.2484966, -0.3117009, -1.0415984
C, 00, 00, 0, 0, 0, 0,  0.0308518, -0.2282172, -0.2168093, -0.2410393, -0.2968059, -0.2478657, -0.3109846, -1.0407120
C, 00, 00, 0, 0, 0, 0,  0.0309763, -0.2226882, -0.2163377, -0.2406402, -0.2963996, -0.2474413, -0.3104883, -1.0401336
C, 00, 00, 0, 0, 0, 0,  0.0310664, -0.2248960, -0.2166219, -0.2408619, -0.2966662, -0.2477317, -0.3108511, -1.0406176
C, 00, 00, 0, 0, 0, 0,  0.0311723, -0.2317748, -0.2172756, -0.2414303, -0.2972598, -0.2483545, -0.3115745, -1.0415422
C, 00, 00, 0, 0, 0, 0,  0.0312862, -0.2339158, -0.2173858, -0.2415448, -0.2973371, -0.2484041, -0.3116498, -1.0416185
C, 00, 00, 0, 0, 0, 0,  0.0311699, -0.2283602, -0.2168198, -0.2410856, -0.2968006, -0.2478319, -0.3109870, -1.0407993
C, 00, 00, 0, 0, 0, 0,  0.0308909, -0.2227059, -0.2163115, -0.2406287, -0.2963348, -0.2473431, -0.3104520, -1.0401393
C, 00, 00, 0, 0, 0, 0,  0.0313153, -0.2247196, -0.2166024, -0.2408791, -0.2966395, -0.2476807, -0.3108330, -1.0406500
C, 00, 00, 0, 0, 0, 0,  0.0312977, -0.2315927, -0.2172394, -0.2414055, -0.2971998, -0.2482777, -0.3115302, -1.0415407
C, 00, 00, 0, 0, 0, 0,  0.0311828, -0.2339430, -0.2174483, -0.2416015, -0.2973652, -0.2484412, -0.3117252, -1.0417625
C, 00, 00, 0, 0, 0, 0,  0.0313010, -0.2285075, -0.2168613, -0.2410994, -0.2968021, -0.2478395, -0.3110423, -1.0409042
C, 00, 00, 0, 0, 0, 0,  0.0310245, -0.2227440, -0.2163563, -0.2406745, -0.2963524, -0.2474017, -0.3104968, -1.0402695
C, 00, 00, 0, 0, 0, 0,  0.0309792, -0.2245574, -0.2165728, -0.2408271, -0.2965808, -0.2476611, -0.3107925, -1.0406777
C, 00, 00, 0, 0, 0, 0,  0.0311561, -0.2314573, -0.2172728, -0.2414532, -0.2972417, -0.2483664, -0.3115960, -1.0416986
C, 00, 00, 0, 0, 0, 0,  0.0312810, -0.2339764, -0.2174120, -0.2415901, -0.2973342, -0.2484451, -0.3116923, -1.0418073
C, 00, 00, 0, 0, 0, 0,  0.0310583, -0.2286544, -0.2168560, -0.2411218, -0.2968054, -0.2478862, -0.3110242, -1.0409948
C, 00, 00, 0, 0, 0, 0,  0.0308266, -0.2227793, -0.2163272, -0.2406307, -0.2963171, -0.2473769, -0.3104463, -1.0403014
C, 00, 00, 0, 0, 0, 0,  0.0312195, -0.2244096, -0.2166147, -0.2408581, -0.2965865, -0.2477022, -0.3107896, -1.0407754
C, 00, 00, 0, 0, 0, 0,  0.0313125, -0.2312575, -0.2172480, -0.2413864, -0.2971478, -0.2483106, -0.3114887, -1.0416709
C, 00, 00, 0, 0, 0, 0,  0.0312619, -0.2339540, -0.2174335, -0.2415891, -0.2973085, -0.2484761, -0.3116703, -1.0418807
C, 00, 00, 0, 0, 0, 0,  0.0311117, -0.2287693, -0.2168513, -0.2410970, -0.2967635, -0.2479015, -0.3110085, -1.0410363
C, 00, 00, 0, 0, 0, 0,  0.0309696, -0.2228160, -0.2163677, -0.2406807, -0.2963467, -0.2474766, -0.3105073, -1.0404359
C, 00, 00, 0, 0, 0, 0,  0.0312958, -0.2242694, -0.2165885, -0.2408624, -0.2965727, -0.2477255, -0.3108225, -1.0408489
C, 00, 00, 0, 0, 0, 0,  0.0312057, -0.2311130, -0.2172361, -0.2414341, -0.2971793, -0.2483425, -0.3115592, -1.0417892
C, 00, 00, 0, 0, 0, 0,  0.0309434, -0.2339754, -0.2173791, -0.2415667, -0.2972827, -0.2484403, -0.3116832, -1.0419279
C, 00, 00, 0, 0, 0, 0,  0.0309873, -0.2289410, -0.2168675, -0.2411638, -0.2968164, -0.2479487, -0.3110867, -1.0411869
C, 00, 00, 0, 0, 0, 0,  0.0310221, -0.2229076, -0.2163430, -0.2407213, -0.2963634, -0.2474671, -0.3105407, -1.0405031
C, 00, 00, 0, 0, 0, 0,  0.0311279, -0.2241740, -0.2165747, -0.2409301, -0.2966142, -0.2477413, -0.3108588, -1.0409318
C, 00, 00, 0, 0, 0, 0,  0.0312057, -0.2309957, -0.2171908, -0.2414580, -0.2971797, -0.2483287, -0.3115511, -1.0418016
C, 00, 00, 0, 0, 0, 0,  0.0311580, -0.2340422, -0.2173825, -0.2416582, -0.2973376, -0.2484889, -0.3117142, -1.0420114
C, 00, 00, 0, 0, 0, 0,  0.0310698, -0.2291212, -0.2168389, -0.2411919, -0.2967987, -0.2479377, -0.3110533, -1.0411884
C, 00, 00, 0, 0, 0, 0,  0.0310550, -0.2229781, -0.2163549, -0.2407675, -0.2963448, -0.2475004, -0.3105073, -1.0405456
C, 00, 00, 0, 0, 0, 0,  0.0308285, -0.2240153, -0.2165284, -0.2408772, -0.2965026, -0.2476778, -0.3107305, -1.0408589
C, 00, 00, 0, 0, 0, 0,  0.0310102, -0.2308135, -0.2172261, -0.2414756, -0.2971406, -0.2483502, -0.3115054, -1.0418516
C, 00, 00, 0, 0, 0, 0,  0.0312572, -0.2340746, -0.2174645, -0.2416845, -0.2973314, -0.2485385, -0.3117319, -1.0421163
C, 00, 00, 0, 0, 0, 0,  0.0311775, -0.2293325, -0.2169876, -0.2413063, -0.2968798, -0.2480631, -0.3111611, -1.0413967
C, 00, 00, 0, 0, 0, 0,  0.0310559, -0.2230807, -0.2163964, -0.2407799, -0.2963233, -0.2475004, -0.3105088, -1.0405847
C, 00, 00, 0, 0, 0, 0,  0.0310330, -0.2239471, -0.2166095, -0.2409621, -0.2965489, -0.2477694, -0.3107958, -1.0409819
C, 00, 00, 0, 0, 0, 0,  0.0309987, -0.2306862, -0.2172132, -0.2414742, -0.2970901, -0.2483292, -0.3114767, -1.0418373
C, 00, 00, 0, 0, 0, 0,  0.0311089, -0.2341199, -0.2174907, -0.2417579, -0.2973457, -0.2485910, -0.3117652, -1.0421873
C, 00, 00, 0, 0, 0, 0,  0.0311008, -0.2295132, -0.2169686, -0.2413235, -0.2968512, -0.2480717, -0.3111554, -1.0414153
C, 00, 00, 0, 0, 0, 0,  0.0310679, -0.2232080, -0.2164259, -0.2408705, -0.2963729, -0.2475896, -0.3105803, -1.0407163
C, 00, 00, 0, 0, 0, 0,  0.0312090, -0.2238307, -0.2165032, -0.2409063, -0.2964654, -0.2476926, -0.3107090, -1.0409218
C, 00, 00, 0, 0, 0, 0,  0.0311174, -0.2305327, -0.2171808, -0.2414842, -0.2971006, -0.2483692, -0.3114639, -1.0419046
C, 00, 00, 0, 0, 0, 0,  0.0310321, -0.2341280, -0.2174540, -0.2417078, -0.2973156, -0.2485957, -0.3117190, -1.0422093
C, 00, 00, 0, 0, 0, 0,  0.0313888, -0.2296634, -0.2169757, -0.2413183, -0.2968593, -0.2481146, -0.3111539, -1.0414926
C, 00, 00, 0, 0, 0, 0,  0.0311403, -0.2232771, -0.2164207, -0.2408004, -0.2963338, -0.2475720, -0.3105412, -1.0407335
C, 00, 00, 0, 0, 0, 0,  0.0309024, -0.2237134, -0.2165680, -0.2408986, -0.2964759, -0.2477436, -0.3107338, -1.0410143
C, 00, 00, 0, 0, 0, 0,  0.0311494, -0.2303634, -0.2171841, -0.2414184, -0.2970410, -0.2483192, -0.3114291, -1.0418993
C, 00, 00, 0, 0, 0, 0,  0.0313802, -0.2341433, -0.2175207, -0.2417465, -0.2973395, -0.2486115, -0.3117795, -1.0423280
C, 00, 00, 0, 0, 0, 0,  0.0311518, -0.2298384, -0.2170158, -0.2413273, -0.2968631, -0.2480846, -0.3111930, -1.0415756
C, 00, 00, 0, 0, 0, 0,  0.0312500, -0.2233629, -0.2164312, -0.2408300, -0.2963462, -0.2475386, -0.3105560, -1.0408012
C, 00, 00, 0, 0, 0, 0,  0.0312991, -0.2235894, -0.2165170, -0.2408762, -0.2964254, -0.2476349, -0.3106947, -1.0409828
C, 00, 00, 0, 0, 0, 0,  0.0311489, -0.2302060, -0.2172032, -0.2414713, -0.2970562, -0.2483006, -0.3114777, -1.0419432
C, 00, 00, 0, 0, 0, 0,  0.0311337, -0.2341457, -0.2175017, -0.2417455, -0.2973152, -0.2485671, -0.3117834, -1.0423013
C, 00, 00, 0, 0, 0, 0,  0.0310206, -0.2300072, -0.2170496, -0.2413974, -0.2968989, -0.2481308, -0.3112560, -1.0416476
C, 00, 00, 0, 0, 0, 0,  0.0307579, -0.2234626, -0.2163964, -0.2408176, -0.2963004, -0.2475200, -0.3105564, -1.0407807
C, 00, 00, 0, 0, 0, 0,  0.0307026, -0.2235232, -0.2165385, -0.2409239, -0.2964697, -0.2477193, -0.3107868, -1.0410963
C, 00, 00, 0, 0, 0, 0,  0.0309157, -0.2300864, -0.2171493, -0.2414294, -0.2970405, -0.2483177, -0.3114972, -1.0420061
C, 00, 00, 0, 0, 0, 0,  0.0311937, -0.2341838, -0.2174721, -0.2417393, -0.2973361, -0.2486148, -0.3118406, -1.0424334
C, 00, 00, 0, 0, 0, 0,  0.0313606, -0.2301870, -0.2169876, -0.2413345, -0.2968817, -0.2481089, -0.3112750, -1.0417148
C, 00, 00, 0, 0, 0, 0,  0.0313945, -0.2236138, -0.2164130, -0.2408405, -0.2963667, -0.2475853, -0.3106547, -1.0409547
C, 00, 00, 0, 0, 0, 0,  0.0311766, -0.2234316, -0.2164326, -0.2408066, -0.2963810, -0.2476178, -0.3107105, -1.0410363
C, 00, 00, 0, 0, 0, 0,  0.0311565, -0.2299161, -0.2171154, -0.2413874, -0.2970033, -0.2482701, -0.3114767, -1.0419980
C, 00, 00, 0, 0, 0, 0,  0.0312753, -0.2341657, -0.2174483, -0.2416859, -0.2972885, -0.2485619, -0.3118120, -1.0423914
C, 00, 00, 0, 0, 0, 0,  0.0310893, -0.2303376, -0.2170038, -0.2413521, -0.2968793, -0.2481275, -0.3112922, -1.0417424
C, 00, 00, 0, 0, 0, 0,  0.0310559, -0.2236996, -0.2163906, -0.2408262, -0.2963214, -0.2475481, -0.3106213, -1.0409209
C, 00, 00, 0, 0, 0, 0,  0.0313702, -0.2233453, -0.2164588, -0.2408700, -0.2964039, -0.2476650, -0.3107381, -1.0410968
C, 00, 00, 0, 0, 0, 0,  0.0310650, -0.2297659, -0.2170887, -0.2413807, -0.2969833, -0.2482710, -0.3114610, -1.0419890
C, 00, 00, 0, 0, 0, 0,  0.0311122, -0.2341643, -0.2174349, -0.2416988, -0.2972904, -0.2485729, -0.3118167, -1.0424181
C, 00, 00, 0, 0, 0, 0,  0.0310726, -0.2305155, -0.2170072, -0.2413473, -0.2968922, -0.2481227, -0.3113065, -1.0417711
C, 00, 00, 0, 0, 0, 0,  0.0310626, -0.2238403, -0.2164288, -0.2408524, -0.2963705, -0.2475744, -0.3106718, -1.0410005
C, 00, 00, 0, 0, 0, 0,  0.0311689, -0.2232604, -0.2164059, -0.2408014, -0.2963510, -0.2475744, -0.3106923, -1.0410439
C, 00, 00, 0, 0, 0, 0,  0.0312705, -0.2295966, -0.2170782, -0.2413731, -0.2969690, -0.2482243, -0.3114515, -1.0419985
C, 00, 00, 0, 0, 0, 0,  0.0313425, -0.2341605, -0.2174611, -0.2416983, -0.2972885, -0.2485543, -0.3118248, -1.0424525
C, 00, 00, 0, 0, 0, 0,  0.0313335, -0.2306891, -0.2170878, -0.2414007, -0.2969380, -0.2481890, -0.3113637, -1.0418860
C, 00, 00, 0, 0, 0, 0,  0.0312452, -0.2239595, -0.2164479, -0.2408314, -0.2963429, -0.2475744, -0.3106637, -1.0410229
C, 00, 00, 0, 0, 0, 0,  0.0310783, -0.2232094, -0.2164870, -0.2408653, -0.2964077, -0.2476688, -0.3107701, -1.0411774
C, 00, 00, 0, 0, 0, 0,  0.0311351, -0.2294679, -0.2170844, -0.2413650, -0.2969604, -0.2482415, -0.3114577, -1.0420319
C, 00, 00, 0, 0, 0, 0,  0.0312986, -0.2341819, -0.2174897, -0.2417522, -0.2973185, -0.2486186, -0.3118682, -1.0425330
C, 00, 00, 0, 0, 0, 0,  0.0312896, -0.2308626, -0.2170534, -0.2414103, -0.2969013, -0.2481799, -0.3113490, -1.0418555
C, 00, 00, 0, 0, 0, 0,  0.0310416, -0.2240782, -0.2164321, -0.2408853, -0.2963395, -0.2475972, -0.3106637, -1.0410100
C, 00, 00, 0, 0, 0, 0,  0.0309157, -0.2231198, -0.2164340, -0.2408386, -0.2963500, -0.2476068, -0.3107090, -1.0410777
C, 00, 00, 0, 0, 0, 0,  0.0312953, -0.2292843, -0.2170654, -0.2413721, -0.2969251, -0.2482028, -0.3114200, -1.0419661
C, 00, 00, 0, 0, 0, 0,  0.0315790, -0.2341132, -0.2174287, -0.2416859, -0.2972312, -0.2484927, -0.3117824, -1.0424086
C, 00, 00, 0, 0, 0, 0,  0.0314264, -0.2309876, -0.2171145, -0.2414546, -0.2969280, -0.2481861, -0.3113981, -1.0419294
C, 00, 00, 0, 0, 0, 0,  0.0310540, -0.2241783, -0.2164731, -0.2408805, -0.2963271, -0.2475639, -0.3106790, -1.0410377
C, 00, 00, 0, 0, 0, 0,  0.0311532, -0.2230115, -0.2164479, -0.2408543, -0.2963214, -0.2475853, -0.3106819, -1.0410959
C, 00, 00, 0, 0, 0, 0,  0.0313954, -0.2290745, -0.2170129, -0.2413292, -0.2968426, -0.2481394, -0.3113342, -1.0419351
C, 00, 00, 0, 0, 0, 0,  0.0314655, -0.2340565, -0.2174473, -0.2417245, -0.2972250, -0.2485295, -0.3117853, -1.0425035
C, 00, 00, 0, 0, 0, 0,  0.0312824, -0.2310763, -0.2170682, -0.2413993, -0.2968402, -0.2481242, -0.3113132, -1.0418974
C, 00, 00, 0, 0, 0, 0,  0.0310745, -0.2242408, -0.2164688, -0.2408896, -0.2963038, -0.2475767, -0.3106556, -1.0410930
C, 00, 00, 0, 0, 0, 0,  0.0310130, -0.2228952, -0.2164507, -0.2408190, -0.2963038, -0.2475677, -0.3106738, -1.0411307
C, 00, 00, 0, 0, 0, 0,  0.0310354, -0.2288757, -0.2170606, -0.2413302, -0.2968746, -0.2481823, -0.3113757, -1.0420300
C, 00, 00, 0, 0, 0, 0,  0.0312095, -0.2340117, -0.2174702, -0.2416940, -0.2972446, -0.2485638, -0.3118143, -1.0425578
C, 00, 00, 0, 0, 0, 0,  0.0312662, -0.2312446, -0.2171555, -0.2414499, -0.2969528, -0.2482453, -0.3114291, -1.0420629
C, 00, 00, 0, 0, 0, 0,  0.0311818, -0.2243605, -0.2164622, -0.2408257, -0.2963071, -0.2475629, -0.3106556, -1.0410930
C, 00, 00, 0, 0, 0, 0,  0.0311375, -0.2228017, -0.2164216, -0.2407799, -0.2962962, -0.2475806, -0.3106637, -1.0411197
C, 00, 00, 0, 0, 0, 0,  0.0313740, -0.2286749, -0.2169919, -0.2412515, -0.2968331, -0.2481456, -0.3113180, -1.0419484
C, 00, 00, 0, 0, 0, 0,  0.0312290, -0.2339273, -0.2174502, -0.2416749, -0.2972532, -0.2485762, -0.3117929, -1.0425412
C, 00, 00, 0, 0, 0, 0,  0.0312390, -0.2313266, -0.2171107, -0.2413817, -0.2969180, -0.2481866, -0.3113590, -1.0419771
C, 00, 00, 0, 0, 0, 0,  0.0311928, -0.2244797, -0.2165337, -0.2408915, -0.2964101, -0.2476340, -0.3107176, -1.0411931
C, 00, 00, 0, 0, 0, 0,  0.0312510, -0.2227178, -0.2164173, -0.2407322, -0.2963190, -0.2475400, -0.3106146, -1.0410892
C, 00, 00, 0, 0, 0, 0,  0.0310741, -0.2284956, -0.2170344, -0.2412620, -0.2969108, -0.2481489, -0.3113232, -1.0419771
C, 00, 00, 0, 0, 0, 0,  0.0312510, -0.2338639, -0.2174516, -0.2416334, -0.2972803, -0.2485242, -0.3117710, -1.0424982
C, 00, 00, 0, 0, 0, 0,  0.0313253, -0.2314611, -0.2171617, -0.2414236, -0.2970205, -0.2482586, -0.3114281, -1.0420462
C, 00, 00, 0, 0, 0, 0,  0.0312405, -0.2245975, -0.2165284, -0.2408643, -0.2964521, -0.2476616, -0.3107400, -1.0411617
C, 00, 00, 0, 0, 0, 0,  0.0312009, -0.2226734, -0.2164727, -0.2407918, -0.2964311, -0.2476478, -0.3107195, -1.0411507
C, 00, 00, 0, 0, 0, 0,  0.0311546, -0.2283201, -0.2169953, -0.2412100, -0.2969151, -0.2481523, -0.3113327, -1.0419065
C, 00, 00, 0, 0, 0, 0,  0.0313296, -0.2338391, -0.2174883, -0.2416625, -0.2973771, -0.2486301, -0.3118787, -1.0425664
C, 00, 00, 0, 0, 0, 0,  0.0312829, -0.2316027, -0.2171254, -0.2413688, -0.2970391, -0.2482300, -0.3114372, -1.0419937
C, 00, 00, 0, 0, 0, 0,  0.0312901, -0.2247138, -0.2164965, -0.2408519, -0.2964807, -0.2476335, -0.3107424, -1.0411397
C, 00, 00, 0, 0, 0, 0,  0.0312309, -0.2225957, -0.2164064, -0.2407332, -0.2964044, -0.2475567, -0.3106718, -1.0410677
C, 00, 00, 0, 0, 0, 0,  0.0311108, -0.2281361, -0.2169824, -0.2412296, -0.2969652, -0.2481361, -0.3113437, -1.0419265
C, 00, 00, 0, 0, 0, 0,  0.0310850, -0.2337656, -0.2174387, -0.2416315, -0.2973814, -0.2485481, -0.3118344, -1.0425364
C, 00, 00, 0, 0, 0, 0,  0.0310464, -0.2317367, -0.2171660, -0.2414303, -0.2971206, -0.2482481, -0.3114791, -1.0420867
C, 00, 00, 0, 0, 0, 0,  0.0312347, -0.2248554, -0.2165313, -0.2408490, -0.2965184, -0.2476144, -0.3107415, -1.0411617
C, 00, 00, 0, 0, 0, 0,  0.0310907, -0.2225299, -0.2164102, -0.2407174, -0.2964220, -0.2475462, -0.3106332, -1.0410510
C, 00, 00, 0, 0, 0, 0,  0.0311942, -0.2279382, -0.2169304, -0.2411537, -0.2969075, -0.2480684, -0.3112536, -1.0418187
C, 00, 00, 0, 0, 0, 0,  0.0312901, -0.2336746, -0.2174340, -0.2416148, -0.2973748, -0.2485495, -0.3118058, -1.0424978
C, 00, 00, 0, 0, 0, 0,  0.0311518, -0.2318387, -0.2171455, -0.2413836, -0.2970801, -0.2482386, -0.3114372, -1.0420228
C, 00, 00, 0, 0, 0, 0,  0.0310888, -0.2249599, -0.2165318, -0.2408552, -0.2965179, -0.2476573, -0.3107357, -1.0411564
C, 00, 00, 0, 0, 0, 0,  0.0312033, -0.2224407, -0.2163825, -0.2406707, -0.2963863, -0.2475152, -0.3105913, -1.0409843
C, 00, 00, 0, 0, 0, 0,  0.0312085, -0.2277670, -0.2170058, -0.2411824, -0.2969766, -0.2481518, -0.3113084, -1.0418769
C, 00, 00, 0, 0, 0, 0,  0.0312305, -0.2335964, -0.2174502, -0.2415533, -0.2973690, -0.2485547, -0.3117724, -1.0424367
C, 00, 00, 0, 0, 0, 0,  0.0310884, -0.2319598, -0.2172084, -0.2413822, -0.2971530, -0.2483235, -0.3114763, -1.0420634
C, 00, 00, 0, 0, 0, 0,  0.0311923, -0.2250886, -0.2165270, -0.2408076, -0.2965351, -0.2476659, -0.3107343, -1.0411373
C, 00, 00, 0, 0, 0, 0,  0.0313063, -0.2224169, -0.2164154, -0.2407203, -0.2964740, -0.2476149, -0.3106761, -1.0410754
C, 00, 00, 0, 0, 0, 0,  0.0312080, -0.2276025, -0.2169495, -0.2411528, -0.2969699, -0.2481418, -0.3112803, -1.0418559
C, 00, 00, 0, 0, 0, 0,  0.0312057, -0.2335615, -0.2174735, -0.2416454, -0.2974592, -0.2486439, -0.3118425, -1.0425650
C, 00, 00, 0, 0, 0, 0,  0.0312095, -0.2321048, -0.2171893, -0.2414208, -0.2971812, -0.2483225, -0.3114806, -1.0420967
C, 00, 00, 0, 0, 0, 0,  0.0311823, -0.2252770, -0.2165952, -0.2409168, -0.2966414, -0.2477565, -0.3108125, -1.0412694
C, 00, 00, 0, 0, 0, 0,  0.0312095, -0.2224078, -0.2163930, -0.2406969, -0.2964630, -0.2475820, -0.3106161, -1.0410482
C, 00, 00, 0, 0, 0, 0,  0.0311532, -0.2274375, -0.2169209, -0.2411361, -0.2969666, -0.2481227, -0.3112302, -1.0418354
C, 00, 00, 0, 0, 0, 0,  0.0311947, -0.2334791, -0.2174144, -0.2415743, -0.2974019, -0.2485857, -0.3117643, -1.0424763
C, 00, 00, 0, 0, 0, 0,  0.0311484, -0.2322669, -0.2172704, -0.2415018, -0.2972694, -0.2484403, -0.3115683, -1.0422155
C, 00, 00, 0, 0, 0, 0,  0.0312743, -0.2254529, -0.2165895, -0.2409134, -0.2966452, -0.2477713, -0.3107973, -1.0412637
C, 00, 00, 0, 0, 0, 0,  0.0314441, -0.2223783, -0.2163797, -0.2407184, -0.2964764, -0.2476006, -0.3106008, -1.0410262
C, 00, 00, 0, 0, 0, 0,  0.0313230, -0.2272654, -0.2168803, -0.2411180, -0.2969365, -0.2480860, -0.3111749, -1.0417439
C, 00, 00, 0, 0, 0, 0,  0.0312738, -0.2334070, -0.2174387, -0.2416244, -0.2974468, -0.2486248, -0.3117872, -1.0424992
C, 00, 00, 0, 0, 0, 0,  0.0313597, -0.2323790, -0.2172609, -0.2414785, -0.2972579, -0.2484269, -0.3115487, -1.0421721
C, 00, 00, 0, 0, 0, 0,  0.0311413, -0.2256055, -0.2166591, -0.2409749, -0.2967081, -0.2478509, -0.3108712, -1.0413228
